#Parameters = {FSS=70; FSSX=1; FSSY=-1; MT=0.018; T=0.13; epsilon=8.971684525; g=-10; gl=15; gw=26; hg=18; hgl=-3; hgnd1up=0; hgw=0.5; hgx1=15; hgy1=10; hsll=1.5; hslw=14.5; n=2; phanup=50; phanx=0; phany=0; pl=26; plusex=0; plusey=0; plusl=6.5; plusw=2.5; plusx=4; plusy=4; pw=23; r=17.35655495771; sl=24; sll=-10; sll1=-16; slot1side=0; slot1up=-1; slot2side=0; slot2up=-8; slw=0.5; slw1=0.5; stripl=19; stripw=1.5; stubl=2; stubw=0.5; stubx=-2.5; stw=0.5; stw1=0; sty=1; sw=30; tand=0.519713008; x=17}
#"Frequency / GHz"	"S1,1 (6) [Magnitude]"
#----------------------------------------
1.0000000000000	-2.9730995748995
1.0039999485016	-2.9827566393609
1.0080000162125	-2.9938520901359
1.0119999647141	-3.0067560032422
1.0160000324249	-3.0218437816315
1.0199999809265	-3.0394921955358
1.0240000486374	-3.0600865533577
1.0279999971390	-3.0840166065376
1.0319999456406	-3.1116792719938
1.0360000133514	-3.1434812026750
1.0399999618530	-3.1798421568013
1.0440000295639	-3.2211953213096
1.0479999780655	-3.2679925373561
1.0520000457764	-3.3207040689390
1.0559999942780	-3.3798268984598
1.0599999427795	-3.4458848251778
1.0640000104904	-3.5194350055155
1.0679999589920	-3.6010707599541
1.0720000267029	-3.6914277744198
1.0759999752045	-3.7911884179708
1.0800000429153	-3.9010909824059
1.0839999914169	-4.0219321668884
1.0880000591278	-4.1545769695538
1.0920000076294	-4.2999671786093
1.0959999561310	-4.4591272588894
1.1000000238419	-4.6331781587490
1.1039999723434	-4.8233460273837
1.1080000400543	-5.0309749879044
1.1119999885559	-5.2575387649499
1.1160000562668	-5.5046620934415
1.1200000047684	-5.7741274966042
1.1239999532700	-6.0678995412429
1.1280000209808	-6.3881411714351
1.1319999694824	-6.7372260366716
1.1360000371933	-7.1177565506132
1.1399999856949	-7.5325651584669
1.1440000534058	-7.9847039736861
1.1480000019073	-8.4773943569448
1.1519999504089	-9.0139178890324
1.1560000181198	-9.5973960496549
1.1599999666214	-10.230358760856
1.1640000343323	-10.913940651638
1.1679999828339	-11.646453071704
1.1720000505447	-12.420867585723
1.1759999990463	-13.220670826720
1.1799999475479	-14.013737021128
1.1840000152588	-14.745238862487
1.1879999637604	-15.334722049222
1.1920000314713	-15.688056699465
1.1959999799728	-15.731890524149
1.2000000476837	-15.453716976114
1.2039999961853	-14.909728551138
1.2079999446869	-14.191719468748
1.2120000123978	-13.387128311901
1.2159999608994	-12.559538352909
1.2200000286102	-11.747947233473
1.2239999771118	-10.973307104422
1.2280000448227	-10.245223436638
1.2319999933243	-9.5667915810661
1.2359999418259	-8.9375718312573
1.2400000095367	-8.3553471687291
1.2439999580383	-7.8171097981378
1.2480000257492	-7.3195698987875
1.2519999742508	-6.8594581239245
1.2560000419617	-6.4336497705068
1.2599999904633	-6.0392403904262
1.2640000581741	-5.6735554876171
1.2680000066757	-5.3341644662594
1.2719999551773	-5.0188531096500
1.2760000228882	-4.7256194434050
1.2799999713898	-4.4526485357220
1.2840000391006	-4.1982995761661
1.2879999876022	-3.9610857016175
1.2920000553131	-3.7396592738802
1.2960000038147	-3.5327967331948
1.2999999523163	-3.3393888603686
1.3040000200272	-3.1584273792264
1.3079999685287	-2.9889940590778
1.3120000362396	-2.8302512334117
1.3159999847412	-2.6814398646540
1.3200000524521	-2.5418616904062
1.3240000009537	-2.4108826116222
1.3279999494553	-2.2879226179167
1.3320000171661	-2.1724479853530
1.3359999656677	-2.0639744364315
1.3400000333786	-1.9620560962963
1.3439999818802	-1.8662833374985
1.3480000495911	-1.7762811700809
1.3519999980927	-1.6917065384684
1.3559999465942	-1.6122410068001
1.3600000143051	-1.5375955071074
1.3639999628067	-1.4675002867590
1.3680000305176	-1.4017104298652
1.3719999790192	-1.3399989470783
1.3760000467300	-1.2821557846641
1.3799999952316	-1.2279876648992
1.3839999437332	-1.1773177322518
1.3880000114441	-1.1299808261104
1.3919999599457	-1.0858243684219
1.3960000276566	-1.0447088295980
1.3999999761581	-1.0065023772058
1.4040000438690	-0.97108501344750
1.4079999923706	-0.93834432416816
1.4119999408722	-0.90817722989479
1.4160000085831	-0.88048414956570
1.4199999570847	-0.85517720003261
1.4240000247955	-0.83217058515279
1.4279999732971	-0.81138521479882
1.4320000410080	-0.79274591261518
1.4359999895096	-0.77618295302799
1.4400000572205	-0.76163049063316
1.4440000057220	-0.74902428413242
1.4479999542236	-0.73830434272449
1.4520000219345	-0.72941376228540
1.4559999704361	-0.72229654571082
1.4600000381470	-0.71689894189319
1.4639999866486	-0.71316825691953
1.4680000543594	-0.71105369328840
1.4720000028610	-0.71050473930410
1.4759999513626	-0.71147065781414
1.4800000190735	-0.71390360899390
1.4839999675751	-0.71775281684853
1.4880000352859	-0.72296769493052
1.4919999837875	-0.72949935579134
1.4960000514984	-0.73729561484961
1.5000000000000	-0.74630704937774
1.5039999485016	-0.75648072151366
1.5080000162125	-0.76776216841098
1.5119999647141	-0.78009929446648
1.5160000324249	-0.79343554169981
1.5199999809265	-0.80771560214983
1.5240000486374	-0.82288296401034
1.5279999971390	-0.83887825115967
1.5319999456406	-0.85564425020450
1.5360000133514	-0.87312087693538
1.5399999618530	-0.89125047109820
1.5440000295639	-0.90997051783541
1.5479999780655	-0.92922179731661
1.5520000457764	-0.94894545666980
1.5559999942780	-0.96908276057516
1.5599999427795	-0.98957268087141
1.5640000104904	-1.0103610010491
1.5679999589920	-1.0313896720719
1.5720000267029	-1.0526047983114
1.5759999752045	-1.0739547977784
1.5800000429153	-1.0953888470835
1.5839999914169	-1.1168625606682
1.5880000591278	-1.1383291299167
1.5920000076294	-1.1597493383278
1.5959999561310	-1.1810855397443
1.6000000238419	-1.2023045523834
1.6039999723434	-1.2233774969827
1.6080000400543	-1.2442781640153
1.6119999885559	-1.2649876021855
1.6160000562668	-1.2854876377689
1.6200000047684	-1.3057674099939
1.6239999532700	-1.3258183486559
1.6280000209808	-1.3456385642808
1.6319999694824	-1.3652288099804
1.6360000371933	-1.3845949240255
1.6399999856949	-1.4037459055171
1.6440000534058	-1.4226960698939
1.6480000019073	-1.4414630012967
1.6519999504089	-1.4600681708371
1.6560000181198	-1.4785351920914
1.6599999666214	-1.4968919191348
1.6640000343323	-1.5151669104990
1.6679999828339	-1.5333950523727
1.6720000505447	-1.5516094480571
1.6759999990463	-1.5698479637117
1.6799999475479	-1.5881478891707
1.6840000152588	-1.6065489806775
1.6879999637604	-1.6250919998551
1.6920000314713	-1.6438180339952
1.6959999799728	-1.6627682580920
1.7000000476837	-1.6819849604446
1.7039999961853	-1.7015085291484
1.7079999446869	-1.7213818263501
1.7120000123978	-1.7416434032872
1.7159999608994	-1.7623359055709
1.7200000286102	-1.7834957293162
1.7239999771118	-1.8051612974387
1.7280000448227	-1.8273675044693
1.7319999933243	-1.8501509612061
1.7359999418259	-1.8735428878827
1.7400000095367	-1.8975742278812
1.7439999580383	-1.9222732622342
1.7480000257492	-1.9476685026390
1.7519999742508	-1.9737829294913
1.7560000419617	-2.0006388520693
1.7599999904633	-2.0282562639322
1.7640000581741	-2.0566522914214
1.7680000066757	-2.0858406710831
1.7719999551773	-2.1158355336134
1.7760000228882	-2.1466442729459
1.7799999713898	-2.1782734797749
1.7840000391006	-2.2107284011900
1.7879999876022	-2.2440107668865
1.7920000553131	-2.2781192053389
1.7960000038147	-2.3130473466831
1.7999999523163	-2.3487914714308
1.8040000200272	-2.3853419696961
1.8079999685287	-2.4226871058030
1.8120000362396	-2.4608136739075
1.8159999847412	-2.4997051252110
1.8200000524521	-2.5393444107380
1.8240000009537	-2.5797102121215
1.8279999494553	-2.6207825796429
1.8320000171661	-2.6625350958782
1.8359999656677	-2.7049458738428
1.8400000333786	-2.7479863367134
1.8439999818802	-2.7916308197356
1.8480000495911	-2.8358506247443
1.8519999980927	-2.8806162919186
1.8559999465942	-2.9258993456328
1.8600000143051	-2.9716698512081
1.8639999628067	-3.0178983969021
1.8680000305176	-3.0645566765864
1.8719999790192	-3.1116149690648
1.8760000467300	-3.1590466875930
1.8799999952316	-3.2068247739950
1.8839999437332	-3.2549222461486
1.8880000114441	-3.3033160257172
1.8919999599457	-3.3519830309326
1.8960000276566	-3.4009034395012
1.8999999761581	-3.4500558700515
1.9040000438690	-3.4994245092282
1.9079999923706	-3.5489963493152
1.9119999408722	-3.5987571205179
1.9160000085831	-3.6486960216806
1.9199999570847	-3.6988059438532
1.9240000247955	-3.7490815343682
1.9279999732971	-3.7995179609317
1.9320000410080	-3.8501158083004
1.9359999895096	-3.9008772758137
1.9400000572205	-3.9518035514011
1.9440000057220	-4.0029019114864
1.9479999542236	-4.0541784103514
1.9520000219345	-4.1056434630364
1.9559999704361	-4.1573060401362
1.9600000381470	-4.2091804484321
1.9639999866486	-4.2612791915642
1.9680000543594	-4.3136152149855
1.9720000028610	-4.3662043260408
1.9759999513626	-4.4190622132946
1.9800000190735	-4.4722042183769
1.9839999675751	-4.5256449931078
1.9880000352859	-4.5793997766863
1.9919999837875	-4.6334834736593
1.9960000514984	-4.6879100454429
2.0000000000000	-4.7426909020061
2.0039999485016	-4.7978370588421
2.0079998970032	-4.8533581811218
2.0120000839233	-4.9092615408733
2.0160000324249	-4.9655526280120
2.0199999809265	-5.0222340602932
2.0239999294281	-5.0793055432123
2.0280001163483	-5.1367652953666
2.0320000648499	-5.1946058270910
2.0360000133514	-5.2528205280804
2.0399999618530	-5.3113971158415
2.0439999103546	-5.3703177255589
2.0480000972748	-5.4295671309200
2.0520000457764	-5.4891201033419
2.0559999942780	-5.5489528959080
2.0599999427795	-5.6090334524830
2.0639998912811	-5.6693287630098
2.0680000782013	-5.7298037498469
2.0720000267029	-5.7904173290888
2.0759999752045	-5.8511275420382
2.0799999237061	-5.9118856599649
2.0840001106262	-5.9726433632049
2.0880000591278	-6.0333493483592
2.0920000076294	-6.0939481788715
2.0959999561310	-6.1543817276872
2.0999999046326	-6.2145946461036
2.1040000915527	-6.2745248239155
2.1080000400543	-6.3341115016315
2.1119999885559	-6.3932939488626
2.1159999370575	-6.4520099969272
2.1199998855591	-6.5101980363387
2.1240000724792	-6.5677968216632
2.1280000209808	-6.6247471418998
2.1319999694824	-6.6809912635176
2.1359999179840	-6.7364715327874
2.1400001049042	-6.7911357358356
2.1440000534058	-6.8449329830283
2.1480000019073	-6.8978167547129
2.1519999504089	-6.9497439219474
2.1559998989105	-7.0006754193605
2.1600000858307	-7.0505739516449
2.1640000343323	-7.0994150614216
2.1679999828339	-7.1471699224844
2.1719999313354	-7.1938212961894
2.1760001182556	-7.2393533097033
2.1800000667572	-7.2837593087326
2.1840000152588	-7.3270359084718
2.1879999637604	-7.3691848755821
2.1919999122620	-7.4102150438733
2.1960000991821	-7.4501388040289
2.2000000476837	-7.4889757666573
2.2039999961853	-7.5267495179689
2.2079999446869	-7.5634870446651
2.2119998931885	-7.5992230963065
2.2160000801086	-7.6339934188996
2.2200000286102	-7.6678391602731
2.2239999771118	-7.7008045621338
2.2279999256134	-7.7329363680520
2.2320001125336	-7.7642862568747
2.2360000610352	-7.7949051214117
2.2400000095367	-7.8248453736310
2.2439999580383	-7.8541671244673
2.2479999065399	-7.8829244661372
2.2520000934601	-7.9111744894396
2.2560000419617	-7.9389767712982
2.2599999904633	-7.9663887727073
2.2639999389648	-7.9934692564364
2.2679998874664	-8.0202737098672
2.2720000743866	-8.0468578458866
2.2760000228882	-8.0732803201144
2.2799999713898	-8.0995923448614
2.2839999198914	-8.1258498279900
2.2880001068115	-8.1520984115036
2.2920000553131	-8.1783910476392
2.2960000038147	-8.2047740081329
2.2999999523163	-8.2312933226735
2.3039999008179	-8.2579900621384
2.3080000877380	-8.2849059954262
2.3120000362396	-8.3120816809653
2.3159999847412	-8.3395508622406
2.3199999332428	-8.3673521070081
2.3239998817444	-8.3955151707988
2.3280000686646	-8.4240713862022
2.3320000171661	-8.4530518354013
2.3359999656677	-8.4824813117052
2.3399999141693	-8.5123859116219
2.3440001010895	-8.5427900961953
2.3480000495911	-8.5737167196101
2.3519999980927	-8.6051864208140
2.3559999465942	-8.6372207829981
2.3599998950958	-8.6698404565418
2.3640000820160	-8.7030612556620
2.3680000305176	-8.7369043013845
2.3719999790192	-8.7713870734228
2.3759999275208	-8.8065273387958
2.3800001144409	-8.8423423558636
2.3840000629425	-8.8788531166776
2.3880000114441	-8.9160768700851
2.3919999599457	-8.9540340520447
2.3959999084473	-8.9927436644847
2.4000000953674	-9.0322280247675
2.4040000438690	-9.0725111231468
2.4079999923706	-9.1136152316140
2.4119999408722	-9.1555676238225
2.4159998893738	-9.1983944000881
2.4200000762939	-9.2421269024740
2.4240000247955	-9.2867937184703
2.4279999732971	-9.3324315625955
2.4319999217987	-9.3790739055478
2.4360001087189	-9.4267616712462
2.4400000572205	-9.4755324796250
2.4440000057220	-9.5254348090414
2.4479999542236	-9.5765091696320
2.4519999027252	-9.6288101373804
2.4560000896454	-9.6823831031260
2.4600000381470	-9.7372924244621
2.4639999866486	-9.7935912292728
2.4679999351501	-9.8513365631046
2.4719998836517	-9.9106005542223
2.4760000705719	-9.9714495046808
2.4800000190735	-10.033953188222
2.4839999675751	-10.098181288320
2.4879999160767	-10.164223466378
2.4920001029968	-10.232151697201
2.4960000514984	-10.302059047414
2.5000000000000	-10.374027670898
2.5039999485016	-10.448149734851
2.5079998970032	-10.524524181900
2.5120000839233	-10.603258604449
2.5160000324249	-10.684452935221
2.5199999809265	-10.768203957497
2.5239999294281	-10.854647881506
2.5280001163483	-10.943881382415
2.5320000648499	-11.036044242339
2.5360000133514	-11.131253813221
2.5399999618530	-11.229646381439
2.5439999103546	-11.331370044964
2.5480000972748	-11.436551248239
2.5520000457764	-11.545354370657
2.5559999942780	-11.657937319899
2.5599999427795	-11.774461388002
2.5639998912811	-11.895102093052
2.5680000782013	-12.020042453507
2.5720000267029	-12.149472168979
2.5759999752045	-12.283590418762
2.5799999237061	-12.422611131552
2.5840001106262	-12.566756135905
2.5880000591278	-12.716262345348
2.5920000076294	-12.871375952943
2.5959999561310	-13.032364049956
2.5999999046326	-13.199506963737
2.6040000915527	-13.373103872961
2.6080000400543	-13.553472425896
2.6119999885559	-13.740951908997
2.6159999370575	-13.935908358986
2.6199998855591	-14.138729115748
2.6240000724792	-14.349831132734
2.6280000209808	-14.569668455567
2.6319999694824	-14.798723807373
2.6359999179840	-15.037518655431
2.6400001049042	-15.286617729045
2.6440000534058	-15.546631513088
2.6480000019073	-15.818219061178
2.6519999504089	-16.102093265085
2.6559998989105	-16.399029081660
2.6600000858307	-16.709856567837
2.6640000343323	-17.035477689338
2.6679999828339	-17.376860260696
2.6719999313354	-17.735036265466
2.6760001182556	-18.111100726108
2.6800000667572	-18.506199147062
2.6840000152588	-18.921498480098
2.6879999637604	-19.358163109755
2.6919999122620	-19.817267820793
2.6960000991821	-20.299713483095
2.7000000476837	-20.806046696832
2.7039999961853	-21.336194236469
2.7079999446869	-21.889072676821
2.7119998931885	-22.461968385665
2.7160000801086	-23.049671300629
2.7200000286102	-23.643222889500
2.7239999771118	-24.228407238111
2.7279999256134	-24.784030677724
2.7320001125336	-25.280937440821
2.7360000610352	-25.682795925994
2.7400000095367	-25.950596102338
2.7439999580383	-26.051217193451
2.7479999065399	-25.967670721717
2.7520000934601	-25.705285443034
2.7560000419617	-25.289702968268
2.7599999904633	-24.758063693851
2.7639999389648	-24.148964207835
2.7679998874664	-23.495694250439
2.7720000743866	-22.823667257086
2.7760000228882	-22.150630816498
2.7799999713898	-21.488161589215
2.7839999198914	-20.843295178095
2.7880001068115	-20.219955144738
2.7920000553131	-19.620012400589
2.7960000038147	-19.044019540770
2.7999999523163	-18.491727852014
2.8039999008179	-17.962410715947
2.8080000877380	-17.455077333605
2.8120000362396	-16.968608529214
2.8159999847412	-16.501845312762
2.8199999332428	-16.053636907384
2.8239998817444	-15.622874438548
2.8280000686646	-15.208504564328
2.8320000171661	-14.809541054685
2.8359999656677	-14.425066187635
2.8399999141693	-14.054229420295
2.8440001010895	-13.696245820740
2.8480000495911	-13.350393215858
2.8519999980927	-13.016003288214
2.8559999465942	-12.692466897796
2.8599998950958	-12.379218532906
2.8640000820160	-12.075741283878
2.8680000305176	-11.781555931279
2.8719999790192	-11.496220580968
2.8759999275208	-11.219332996364
2.8800001144409	-10.950514151760
2.8840000629425	-10.689415663201
2.8880000114441	-10.435717293260
2.8919999599457	-10.189121564163
2.8959999084473	-9.9493455562807
2.9000000953674	-9.7161317807308
2.9040000438690	-9.4892429448349
2.9079999923706	-9.2684470932577
2.9119999408722	-9.0535378642843
2.9159998893738	-8.8443112928094
2.9200000762939	-8.6405857658748
2.9240000247955	-8.4421832749469
2.9279999732971	-8.2489393306030
2.9319999217987	-8.0606960769591
2.9360001087189	-7.8773049674528
2.9400000572205	-7.6986256514709
2.9440000057220	-7.5245237817486
2.9479999542236	-7.3548706873120
2.9519999027252	-7.1895457443860
2.9560000896454	-7.0284312544125
2.9600000381470	-6.8714135357165
2.9639999866486	-6.7183860975032
2.9679999351501	-6.5692470551259
2.9719998836517	-6.4238927645300
2.9760000705719	-6.2822300214280
2.9800000190735	-6.1441622698982
2.9839999675751	-6.0096018516808
2.9879999160767	-5.8784608278739
2.9920001029968	-5.7506520871555
2.9960000514984	-5.6260952284616
3.0000000000000	-5.5047080227586
3.0039999485016	-5.3864133317206
3.0079998970032	-5.2711330131586
3.0120000839233	-5.1587948822778
3.0160000324249	-5.0493236104512
3.0199999809265	-4.9426502182692
3.0239999294281	-4.8387022286730
3.0280001163483	-4.7374147832714
3.0320000648499	-4.6387215370642
3.0360000133514	-4.5425561776110
3.0399999618530	-4.4488557097938
3.0439999103546	-4.3575566535691
3.0480000972748	-4.2686017746992
3.0520000457764	-4.1819273588338
3.0559999942780	-4.0974777808915
3.0599999427795	-4.0151951140050
3.0639998912811	-3.9350246948757
3.0680000782013	-3.8569116483826
3.0720000267029	-3.7808023508813
3.0759999752045	-3.7066461192235
3.0799999237061	-3.6343906401925
3.0840001106262	-3.5639866032015
3.0880000591278	-3.4953867411091
3.0920000076294	-3.4285426426660
3.0959999561310	-3.3634076918848
3.0999999046326	-3.2999377136922
3.1040000915527	-3.2380899244505
3.1080000400543	-3.1778190764523
3.1119999885559	-3.1190853730140
3.1159999370575	-3.0618466307890
3.1199998855591	-3.0060643356140
3.1240000724792	-2.9516996175270
3.1280000209808	-2.8987147872946
3.1319999694824	-2.8470742363308
3.1359999179840	-2.7967402308504
3.1400001049042	-2.7476811517500
3.1440000534058	-2.6998608784647
3.1480000019073	-2.6532488105057
3.1519999504089	-2.6078115473854
3.1559998989105	-2.5635179596697
3.1600000858307	-2.5203405607569
3.1640000343323	-2.4782479477896
3.1679999828339	-2.4372117253017
3.1719999313354	-2.3972061235602
3.1760001182556	-2.3582027738166
3.1800000667572	-2.3201770881245
3.1840000152588	-2.2831031087107
3.1879999637604	-2.2469576787633
3.1919999122620	-2.2117157376731
3.1960000991821	-2.1773542449753
3.2000000476837	-2.1438515883195
3.2039999961853	-2.1111858447020
3.2079999446869	-2.0793355075675
3.2119998931885	-2.0482809355604
3.2160000801086	-2.0180003382795
3.2200000286102	-1.9884763481691
3.2239999771118	-1.9596892281982
3.2279999256134	-1.9316202134260
3.2320001125336	-1.9042528052235
3.2360000610352	-1.8775686899925
3.2400000095367	-1.8515506126631
3.2439999580383	-1.8261821397004
3.2479999065399	-1.8014476510779
3.2520000934601	-1.7773312262302
3.2560000419617	-1.7538175705265
3.2599999904633	-1.7308919986703
3.2639999389648	-1.7085393801254
3.2679998874664	-1.6867461689651
3.2720000743866	-1.6654974272407
