#Parameters = {FSS=70; FSSX=1; FSSY=-1; MT=0.018; T=0.13; epsilon=9.130863853; g=-10; gl=15; gw=26; hg=18; hgl=-3; hgnd1up=0; hgw=0.5; hgx1=15; hgy1=10; hsll=1.5; hslw=14.5; n=2; phanup=50; phanx=0; phany=0; pl=26; plusex=0; plusey=0; plusl=6.5; plusw=2.5; plusx=4; plusy=4; pw=23; r=17.35655495771; sl=24; sll=-10; sll1=-16; slot1side=0; slot1up=-1; slot2side=0; slot2up=-8; slw=0.5; slw1=0.5; stripl=19; stripw=1.5; stubl=2; stubw=0.5; stubx=-2.5; stw=0.5; stw1=0; sty=1; sw=30; tand=0.516168018; x=17}
#"Frequency / GHz"	"S1,1 (23) [Magnitude]"
#-----------------------------------------
1.0000000000000	-2.9730939218412
1.0039999485016	-2.9827176884815
1.0080000162125	-2.9937799609597
1.0119999647141	-3.0066498718945
1.0160000324249	-3.0217044105379
1.0199999809265	-3.0393218556646
1.0240000486374	-3.0598851508091
1.0279999971390	-3.0837859443613
1.0319999456406	-3.1114200142300
1.0360000133514	-3.1431950947659
1.0399999618530	-3.1795301364095
1.0440000295639	-3.2208592501848
1.0479999780655	-3.2676330747282
1.0520000457764	-3.3203243265467
1.0559999942780	-3.3794274001589
1.0599999427795	-3.4454689374617
1.0640000104904	-3.5190043178045
1.0679999589920	-3.6006280918997
1.0720000267029	-3.6909760556234
1.0759999752045	-3.7907292663502
1.0800000429153	-3.9006292201480
1.0839999914169	-4.0214716331077
1.0880000591278	-4.1541218390714
1.0920000076294	-4.2995214317786
1.0959999561310	-4.4586968582147
1.1000000238419	-4.6327679198375
1.1039999723434	-4.8229643615016
1.1080000400543	-5.0306281410652
1.1119999885559	-5.2572377786400
1.1160000562668	-5.5044160106995
1.1200000047684	-5.7739490468602
1.1239999532700	-6.0678032286331
1.1280000209808	-6.3881410932759
1.1319999694824	-6.7373432350325
1.1360000371933	-7.1180137908529
1.1399999856949	-7.5329894245293
1.1440000534058	-7.9853271169446
1.1480000019073	-8.4782531752955
1.1519999504089	-9.0150599467142
1.1560000181198	-9.5988742358194
1.1599999666214	-10.232238751121
1.1640000343323	-10.916298736790
1.1679999828339	-11.649372107768
1.1720000505447	-12.424432566786
1.1759999990463	-13.224949410348
1.1799999475479	-14.018736795285
1.1840000152588	-14.750836548066
1.1879999637604	-15.340586532648
1.1920000314713	-15.693628505112
1.1959999799728	-15.736528374220
1.2000000476837	-15.456969626745
1.2039999961853	-14.911493285021
1.2079999446869	-14.192175012189
1.2120000123978	-13.386570685902
1.2159999608994	-12.558252963524
1.2200000286102	-11.746168897920
1.2239999771118	-10.971197893060
1.2280000448227	-10.242912982387
1.2319999933243	-9.5643604342948
1.2359999418259	-8.9350777008246
1.2400000095367	-8.3528364229361
1.2439999580383	-7.8146047518892
1.2480000257492	-7.3170918281877
1.2519999742508	-6.8570176613904
1.2560000419617	-6.4312573574055
1.2599999904633	-6.0369015645335
1.2640000581741	-5.6712775427925
1.2680000066757	-5.3319475034545
1.2719999551773	-5.0166972528655
1.2760000228882	-4.7235254825525
1.2799999713898	-4.4506166027310
1.2840000391006	-4.1963281050113
1.2879999876022	-3.9591728784805
1.2920000553131	-3.7378042867348
1.2960000038147	-3.5309984564836
1.2999999523163	-3.3376461056235
1.3040000200272	-3.1567372431250
1.3079999685287	-2.9873542646113
1.3120000362396	-2.8286622026861
1.3159999847412	-2.6798975345393
1.3200000524521	-2.5403651490944
1.3240000009537	-2.4094305503248
1.3279999494553	-2.2865131112635
1.3320000171661	-2.1710806134016
1.3359999656677	-2.0626466358746
1.3400000333786	-1.9607659297714
1.3439999818802	-1.8650305162290
1.3480000495911	-1.7750644335851
1.3519999980927	-1.6905242024829
1.3559999465942	-1.6110921712747
1.3600000143051	-1.5364782148453
1.3639999628067	-1.4664147557453
1.3680000305176	-1.4006554995000
1.3719999790192	-1.3389728929460
1.3760000467300	-1.2811591456585
1.3799999952316	-1.2270195900144
1.3839999437332	-1.1763768649044
1.3880000114441	-1.1290670245055
1.3919999599457	-1.0849369361774
1.3960000276566	-1.0438473157115
1.3999999761581	-1.0056668906230
1.4040000438690	-0.97027460676208
1.4079999923706	-0.93755870251296
1.4119999408722	-0.90741616056162
1.4160000085831	-0.87974802992491
1.4199999570847	-0.85446593764430
1.4240000247955	-0.83148407984063
1.4279999732971	-0.81072235312320
1.4320000410080	-0.79210780987050
1.4359999895096	-0.77556987509053
1.4400000572205	-0.76104187680858
1.4440000057220	-0.74846092312133
1.4479999542236	-0.73776639330351
1.4520000219345	-0.72890117059994
1.4559999704361	-0.72180945340956
1.4600000381470	-0.71643730351365
1.4639999866486	-0.71273347554900
1.4680000543594	-0.71064594181169
1.4720000028610	-0.71012431723601
1.4759999513626	-0.71111824181173
1.4800000190735	-0.71357920109706
1.4839999675751	-0.71745639706412
1.4880000352859	-0.72270127035597
1.4919999837875	-0.72926197675796
1.4960000514984	-0.73708961793196
1.5000000000000	-0.74613088784916
1.5039999485016	-0.75633560041018
1.5080000162125	-0.76764987366667
1.5119999647141	-0.78001809384602
1.5160000324249	-0.79338777388042
1.5199999809265	-0.80770089069650
1.5240000486374	-0.82290090900747
1.5279999971390	-0.83893123459612
1.5319999456406	-0.85573108447796
1.5360000133514	-0.87324300138099
1.5399999618530	-0.89140626256986
1.5440000295639	-0.91016244691398
1.5479999780655	-0.92944903871297
1.5520000457764	-0.94920896607113
1.5559999942780	-0.96938032174812
1.5599999427795	-0.98990748775953
1.5640000104904	-1.0107307606928
1.5679999589920	-1.0317941786137
1.5720000267029	-1.0530449593117
1.5759999752045	-1.0744301447168
1.5800000429153	-1.0959005999528
1.5839999914169	-1.1174079929792
1.5880000591278	-1.1389091188330
1.5920000076294	-1.1603628085063
1.5959999561310	-1.1817325021029
1.6000000238419	-1.2029850067700
1.6039999723434	-1.2240897290913
1.6080000400543	-1.2450232019166
1.6119999885559	-1.2657633306801
1.6160000562668	-1.2862941322744
1.6200000047684	-1.3066034589092
1.6239999532700	-1.3266839032264
1.6280000209808	-1.3465329692296
1.6319999694824	-1.3661511241966
1.6360000371933	-1.3855446821090
1.6399999856949	-1.4047228836046
1.6440000534058	-1.4237004308169
1.6480000019073	-1.4424935485280
1.6519999504089	-1.4611234265258
1.6560000181198	-1.4796154919229
1.6599999666214	-1.4979959115272
1.6640000343323	-1.5162961377297
1.6679999828339	-1.5345474882117
1.6720000505447	-1.5527858327278
1.6759999990463	-1.5710469225280
1.6799999475479	-1.5893701965499
1.6840000152588	-1.6077939413961
1.6879999637604	-1.6263587768370
1.6920000314713	-1.6451078730702
1.6959999799728	-1.6640799142972
1.7000000476837	-1.6833190420602
1.7039999961853	-1.7028661097948
1.7079999446869	-1.7227614125587
1.7120000123978	-1.7430472741145
1.7159999608994	-1.7637616662885
1.7200000286102	-1.7849439771932
1.7239999771118	-1.8066321018170
1.7280000448227	-1.8288627601243
1.7319999933243	-1.8516695648149
1.7359999418259	-1.8750850870384
1.7400000095367	-1.8991401422777
1.7439999580383	-1.9238641978034
1.7480000257492	-1.9492830160363
1.7519999742508	-1.9754234030022
1.7560000419617	-2.0023037168221
1.7599999904633	-2.0299461389124
1.7640000581741	-2.0583672961844
1.7680000066757	-2.0875814867188
1.7719999551773	-2.1176014006462
1.7760000228882	-2.1484366519681
1.7799999713898	-2.1800914683525
1.7840000391006	-2.2125724218014
1.7879999876022	-2.2458799517200
1.7920000553131	-2.2800128897054
1.7960000038147	-2.3149669142836
1.7999999523163	-2.3507355412357
1.8040000200272	-2.3873106622152
1.8079999685287	-2.4246802127633
1.8120000362396	-2.4628294815170
1.8159999847412	-2.5017442541103
1.8200000524521	-2.5414041807191
1.8240000009537	-2.5817915610005
1.8279999494553	-2.6228831031902
1.8320000171661	-2.6646549414435
1.8359999656677	-2.7070833937343
1.8400000333786	-2.7501399657960
1.8439999818802	-2.7937997517735
1.8480000495911	-2.8380317783644
1.8519999980927	-2.8828102498947
1.8559999465942	-2.9281020456202
1.8600000143051	-2.9738812105379
1.8639999628067	-3.0201162076572
1.8680000305176	-3.0667775869821
1.8719999790192	-3.1138372351387
1.8760000467300	-3.1612680347596
1.8799999952316	-3.2090420574598
1.8839999437332	-3.2571336079876
1.8880000114441	-3.3055191914619
1.8919999599457	-3.3541748771182
1.8960000276566	-3.4030803152833
1.8999999761581	-3.4522167833506
1.9040000438690	-3.5015662770356
1.9079999923706	-3.5511139654078
1.9119999408722	-3.6008488325357
1.9160000085831	-3.6507584572440
1.9199999570847	-3.7008365117860
1.9240000247955	-3.7510759789988
1.9279999732971	-3.8014738771602
1.9320000410080	-3.8520303981935
1.9359999895096	-3.9027457544833
1.9400000572205	-3.9536240919179
1.9440000057220	-4.0046698720094
1.9479999542236	-4.0558921744875
1.9520000219345	-4.1072979029619
1.9559999704361	-4.1588994799606
1.9600000381470	-4.2107077828278
1.9639999866486	-4.2627386274620
1.9680000543594	-4.3150024240636
1.9720000028610	-4.3675164534907
1.9759999513626	-4.4202965873638
1.9800000190735	-4.4733562711765
1.9839999675751	-4.5267106757263
1.9880000352859	-4.5803777331928
1.9919999837875	-4.6343694798561
1.9960000514984	-4.6887010278398
2.0000000000000	-4.7433833800403
2.0039999485016	-4.7984277798491
2.0079998970032	-4.8538447390486
2.0120000839233	-4.9096395424189
2.0160000324249	-4.9658191535718
2.0199999809265	-5.0223857977334
2.0239999294281	-5.0793397216347
2.0280001163483	-5.1366774289357
2.0320000648499	-5.1943948679599
2.0360000133514	-5.2524815020498
2.0399999618530	-5.3109275364903
2.0439999103546	-5.3697163532805
2.0480000972748	-5.4288289597528
2.0520000457764	-5.4882431234238
2.0559999942780	-5.5479329522860
2.0599999427795	-5.6078686972101
2.0639998912811	-5.6680166285646
2.0680000782013	-5.7283416467618
2.0720000267029	-5.7888039904555
2.0759999752045	-5.8493585233352
2.0799999237061	-5.9099611483264
2.0840001106262	-5.9705613819257
2.0880000591278	-6.0311064788192
2.0920000076294	-6.0915428694198
2.0959999561310	-6.1518150043491
2.0999999046326	-6.2118643277513
2.1040000915527	-6.2716302457380
2.1080000400543	-6.3310544135733
2.1119999885559	-6.3900724325832
2.1159999370575	-6.4486244990238
2.1199998855591	-6.5066491985690
2.1240000724792	-6.5640861904320
2.1280000209808	-6.6208764684631
2.1319999694824	-6.6769605148564
2.1359999179840	-6.7322852189311
2.1400001049042	-6.7867966221524
2.1440000534058	-6.8404440659396
2.1480000019073	-6.8931812432113
2.1519999504089	-6.9449648508992
2.1559998989105	-6.9957576856420
2.1600000858307	-7.0455252085548
2.1640000343323	-7.0942373780508
2.1679999828339	-7.1418701824344
2.1719999313354	-7.1884040581046
2.1760001182556	-7.2338276263635
2.1800000667572	-7.2781297284340
2.1840000152588	-7.3213101943985
2.1879999637604	-7.3633700342335
2.1919999122620	-7.4043183238485
2.1960000991821	-7.4441693047758
2.2000000476837	-7.4829413942341
2.2039999961853	-7.5206579905495
2.2079999446869	-7.5573482412983
2.2119998931885	-7.5930446557945
2.2160000801086	-7.6277846318770
2.2200000286102	-7.6616073462004
2.2239999771118	-7.6945589707245
2.2279999256134	-7.7266870670993
2.2320001125336	-7.7580398151870
2.2360000610352	-7.7886712493975
2.2400000095367	-7.8186350436910
2.2439999580383	-7.8479870909182
2.2479999065399	-7.8767825196888
2.2520000934601	-7.9050828496398
2.2560000419617	-7.9329402330784
2.2599999904633	-7.9604177308085
2.2639999389648	-7.9875697119730
2.2679998874664	-8.0144543432140
2.2720000743866	-8.0411287842395
2.2760000228882	-8.0676470465186
2.2799999713898	-8.0940638296562
2.2839999198914	-8.1204307869582
2.2880001068115	-8.1467991722956
2.2920000553131	-8.1732176860771
2.2960000038147	-8.1997317583182
2.2999999523163	-8.2263891330353
2.3039999008179	-8.2532317314021
2.3080000877380	-8.2802993090803
2.3120000362396	-8.3076318529702
2.3159999847412	-8.3352649363831
2.3199999332428	-8.3632339638330
2.3239998817444	-8.3915717712630
2.3280000686646	-8.4203084444043
2.3320000171661	-8.4494725202428
2.3359999656677	-8.4790910603160
2.3399999141693	-8.5091900888321
2.3440001010895	-8.5397929646368
2.3480000495911	-8.5709219657386
2.3519999980927	-8.6025989249220
2.3559999465942	-8.6348446743452
2.3599998950958	-8.6676778639794
2.3640000820160	-8.7011164127483
2.3680000305176	-8.7351803352056
2.3719999790192	-8.7698876400432
2.3759999275208	-8.8052550466275
2.3800001144409	-8.8413009002757
2.3840000629425	-8.8780430581552
2.3880000114441	-8.9155011936185
2.3919999599457	-8.9536942574489
2.3959999084473	-8.9926424138047
2.4000000953674	-9.0323672279916
2.4040000438690	-9.0728917519616
2.4079999923706	-9.1142390063836
2.4119999408722	-9.1564342724579
2.4159998893738	-9.1995059764259
2.4200000762939	-9.2434836469833
2.4240000247955	-9.2883977544006
2.4279999732971	-9.3342811743465
2.4319999217987	-9.3811707945428
2.4360001087189	-9.4291040688028
2.4400000572205	-9.4781262551383
2.4440000057220	-9.5282698807136
2.4479999542236	-9.5795920846219
2.4519999027252	-9.6321386696652
2.4560000896454	-9.6859591082224
2.4600000381470	-9.7411116985172
2.4639999866486	-9.7976470883780
2.4679999351501	-9.8556408066440
2.4719998836517	-9.9151468188585
2.4760000705719	-9.9762338269558
2.4800000190735	-10.038977085080
2.4839999675751	-10.103445535867
2.4879999160767	-10.169723811438
2.4920001029968	-10.237890286749
2.4960000514984	-10.308031939916
2.5000000000000	-10.380230620652
2.5039999485016	-10.454589332684
2.5079998970032	-10.531195768733
2.5120000839233	-10.610163053255
2.5160000324249	-10.691578647988
2.5199999809265	-10.775564000237
2.5239999294281	-10.862235457761
2.5280001163483	-10.951695950224
2.5320000648499	-11.044082596168
2.5360000133514	-11.139516262348
2.5399999618530	-11.238134164676
2.5439999103546	-11.340070296764
2.5480000972748	-11.445482288414
2.5520000457764	-11.554507890730
2.5559999942780	-11.667311921138
2.5599999427795	-11.784055974826
2.5639998912811	-11.904919012748
2.5680000782013	-12.030077857573
2.5720000267029	-12.159727863273
2.5759999752045	-12.294066659838
2.5799999237061	-12.433308410175
2.5840001106262	-12.577672067859
2.5880000591278	-12.727396987905
2.5920000076294	-12.882731547399
2.5959999561310	-13.043939377855
2.5999999046326	-13.211301262239
2.6040000915527	-13.385116803260
2.6080000400543	-13.565703642387
2.6119999885559	-13.753401362538
2.6159999370575	-13.948573655165
2.6199998855591	-14.151610222933
2.6240000724792	-14.362929173395
2.6280000209808	-14.582977833388
2.6319999694824	-14.812240974875
2.6359999179840	-15.051241277936
2.6400001049042	-15.300539846149
2.6440000534058	-15.560748383378
2.6480000019073	-15.832520199059
2.6519999504089	-16.116568917242
2.6559998989105	-16.413663251151
2.6600000858307	-16.724633901443
2.6640000343323	-17.050375855900
2.6679999828339	-17.391849528060
2.6719999313354	-17.750078356829
2.6760001182556	-18.126149194031
2.6800000667572	-18.521190811311
2.6840000152588	-18.936356354323
2.6879999637604	-19.372779844462
2.6919999122620	-19.831511524255
2.6960000991821	-20.313411689235
2.7000000476837	-20.818961286032
2.7039999961853	-21.348031975512
2.7079999446869	-21.899426963300
2.7119998931885	-22.470332297686
2.7160000801086	-23.055378201646
2.7200000286102	-23.645450991777
2.7239999771118	-24.226155222922
2.7279999256134	-24.776217583404
2.7320001125336	-25.266500774890
2.7360000610352	-25.661012847565
2.7400000095367	-25.921391477133
2.7439999580383	-26.015485593710
2.7479999065399	-25.927215260513
2.7520000934601	-25.662440689085
2.7560000419617	-25.246749800228
2.7599999904633	-24.716785447472
2.7639999389648	-24.110488653631
2.7679998874664	-23.460588595517
2.7720000743866	-22.792083717288
2.7760000228882	-22.122468839818
2.7799999713898	-21.463185846294
2.7839999198914	-20.821217469568
2.7880001068115	-20.200479011458
2.7920000553131	-19.602850021486
2.7960000038147	-19.028911528001
2.7999999523163	-18.478444110697
2.8039999008179	-17.950743645498
2.8080000877380	-17.444844593931
2.8120000362396	-16.959655057128
2.8159999847412	-16.494031308273
2.8199999332428	-16.046842917337
2.8239998817444	-15.616992803008
2.8280000686646	-15.203444241399
2.8320000171661	-14.805218948307
2.8359999656677	-14.421410330140
2.8399999141693	-14.051174729822
2.8440001010895	-13.693736220645
2.8480000495911	-13.348376088573
2.8519999980927	-13.014433286542
2.8559999465942	-12.691302769573
2.8599998950958	-12.378422972165
2.8640000820160	-12.075280100029
2.8680000305176	-11.781397793868
2.8719999790192	-11.496340725826
2.8759999275208	-11.219702727611
2.8800001144409	-10.951111105089
2.8840000629425	-10.690221062032
2.8880000114441	-10.436709799372
2.8919999599457	-10.190279293945
2.8959999084473	-9.9506574516487
2.9000000953674	-9.7175823029865
2.9040000438690	-9.4908151099005
2.9079999923706	-9.2701289382484
2.9119999408722	-9.0553169009412
2.9159998893738	-8.8461788686041
2.9200000762939	-8.6425306233154
2.9240000247955	-8.4441956220788
2.9279999732971	-8.2510099486516
2.9319999217987	-8.0628174551754
2.9360001087189	-7.8794697449131
2.9400000572205	-7.7008264972313
2.9440000057220	-7.5267548426320
2.9479999542236	-7.3571262916020
2.9519999027252	-7.1918186792204
2.9560000896454	-7.0307178286316
2.9600000381470	-6.8737101050011
2.9639999866486	-6.7206872943379
2.9679999351501	-6.5715478799118
2.9719998836517	-6.4261909483220
2.9760000705719	-6.2845207080311
2.9800000190735	-6.1464439528521
2.9839999675751	-6.0118723220371
2.9879999160767	-5.8807155498404
2.9920001029968	-5.7528906903578
2.9960000514984	-5.6283137178041
3.0000000000000	-5.5069054098494
3.0039999485016	-5.3885884754918
3.0079998970032	-5.2732846895565
3.0120000839233	-5.1609198815948
3.0160000324249	-5.0514217527820
3.0199999809265	-4.9447201198566
3.0239999294281	-4.8407458098557
3.0280001163483	-4.7394297214683
3.0320000648499	-4.6407055843134
3.0360000133514	-4.5445089502029
3.0399999618530	-4.4507783558730
3.0439999103546	-4.3594489848306
3.0480000972748	-4.2704613140467
3.0520000457764	-4.1837555846945
3.0559999942780	-4.0992743883329
3.0599999427795	-4.0169592755215
3.0639998912811	-3.9367588280169
3.0680000782013	-3.8586142479723
3.0720000267029	-3.7824732672336
3.0759999752045	-3.7082855011763
3.0799999237061	-3.6360004523211
3.0840001106262	-3.5655648268617
3.0880000591278	-3.4969353922651
3.0920000076294	-3.4300602549612
3.0959999561310	-3.3648972842571
3.0999999046326	-3.3013985976394
3.1040000915527	-3.2395220064510
3.1080000400543	-3.1792231401530
3.1119999885559	-3.1204614465149
3.1159999370575	-3.0631966247348
3.1199998855591	-3.0073879757426
3.1240000724792	-2.9529973653717
3.1280000209808	-2.8999873110696
3.1319999694824	-2.8483206322003
3.1359999179840	-2.7979636068190
3.1400001049042	-2.7488794996983
3.1440000534058	-2.7010372194602
3.1480000019073	-2.6544010348161
3.1519999504089	-2.6089417576373
3.1559998989105	-2.5646275584442
3.1600000858307	-2.5214281510021
3.1640000343323	-2.4793140667662
3.1679999828339	-2.4382589764665
3.1719999313354	-2.3982329929885
3.1760001182556	-2.3592107115181
3.1800000667572	-2.3211673488010
3.1840000152588	-2.2840756310702
3.1879999637604	-2.2479113269137
3.1919999122620	-2.2126523395045
3.1960000991821	-2.1782736421597
3.2000000476837	-2.1447542352779
3.2039999961853	-2.1120727353868
3.2079999446869	-2.0802067743435
3.2119998931885	-2.0491358493245
3.2160000801086	-2.0188408338418
3.2200000286102	-1.9893013096659
3.2239999771118	-1.9605000741966
3.2279999256134	-1.9324168727515
3.2320001125336	-1.9050353918519
3.2360000610352	-1.8783372800105
3.2400000095367	-1.8523053161806
3.2439999580383	-1.8269239660118
3.2479999065399	-1.8021765699642
3.2520000934601	-1.7780473308806
3.2560000419617	-1.7545215185426
3.2599999904633	-1.7315829471955
3.2639999389648	-1.7092172644775
3.2679998874664	-1.6874116543310
3.2720000743866	-1.6661505873315
