#Parameters = {FSS=70; FSSX=1; FSSY=-1; MT=0.018; T=0.13; epsilon=9.21538194; g=-10; gl=15; gw=26; hg=18; hgl=-3; hgnd1up=0; hgw=0.5; hgx1=15; hgy1=10; hsll=1.5; hslw=14.5; n=2; phanup=50; phanx=0; phany=0; pl=26; plusex=0; plusey=0; plusl=6.5; plusw=2.5; plusx=4; plusy=4; pw=23; r=17.35655495771; sl=24; sll=-10; sll1=-16; slot1side=0; slot1up=-1; slot2side=0; slot2up=-8; slw=0.5; slw1=0.5; stripl=19; stripw=1.5; stubl=2; stubw=0.5; stubx=-2.5; stw=0.5; stw1=0; sty=1; sw=30; tand=0.514294894; x=17}
#"Frequency / GHz"	"S1,1 (31) [Magnitude]"
#-----------------------------------------
1.0000000000000	-2.9730542501279
1.0039999485016	-2.9826601974619
1.0080000162125	-2.9937034144389
1.0119999647141	-3.0065556752772
1.0160000324249	-3.0215920533078
1.0199999809265	-3.0391925866301
1.0240000486374	-3.0597403688029
1.0279999971390	-3.0836243303926
1.0319999456406	-3.1112444358298
1.0360000133514	-3.1430046889668
1.0399999618530	-3.1793274754440
1.0440000295639	-3.2206448498569
1.0479999780655	-3.2674078345205
1.0520000457764	-3.3200893817692
1.0559999942780	-3.3791854042950
1.0599999427795	-3.4452196090829
1.0640000104904	-3.5187495269501
1.0679999589920	-3.6003685341271
1.0720000267029	-3.6907136504594
1.0759999752045	-3.7904665657144
1.0800000429153	-3.9003678158667
1.0839999914169	-4.0212129777723
1.0880000591278	-4.1538696757099
1.0920000076294	-4.2992778717061
1.0959999561310	-4.4584644463560
1.1000000238419	-4.6325524870337
1.1039999723434	-4.8227664900062
1.1080000400543	-5.0304551591361
1.1119999885559	-5.2570931518667
1.1160000562668	-5.5043059091909
1.1200000047684	-5.7738807268294
1.1239999532700	-6.0677838466075
1.1280000209808	-6.3881824684484
1.1319999694824	-6.7374538606194
1.1360000371933	-7.1182052446483
1.1399999856949	-7.5332801027905
1.1440000534058	-7.9857329124324
1.1480000019073	-8.4787954963886
1.1519999504089	-9.0157653698165
1.1560000181198	-9.5997744577045
1.1599999666214	-10.233366616234
1.1640000343323	-10.917696688081
1.1679999828339	-11.651086366271
1.1720000505447	-12.426509685713
1.1759999990463	-13.227425865127
1.1799999475479	-14.021610419822
1.1840000152588	-14.754035908645
1.1879999637604	-15.343921086236
1.1920000314713	-15.696779149035
1.1959999799728	-15.739137157361
1.2000000476837	-15.458788052377
1.2039999961853	-14.912472185068
1.2079999446869	-14.192420834482
1.2120000123978	-13.386251064706
1.2159999608994	-12.557533027410
1.2200000286102	-11.745176330630
1.2239999771118	-10.970036172045
1.2280000448227	-10.241642556833
1.2319999933243	-9.5630265443495
1.2359999418259	-8.9337144400020
1.2400000095367	-8.3514629787887
1.2439999580383	-7.8132398840072
1.2480000257492	-7.3157412541189
1.2519999742508	-6.8556936934975
1.2560000419617	-6.4299629790663
1.2599999904633	-6.0356395333797
1.2640000581741	-5.6700498214514
1.2680000066757	-5.3307530352965
1.2719999551773	-5.0155395154564
1.2760000228882	-4.7224023826188
1.2799999713898	-4.4495287665002
1.2840000391006	-4.1952740190269
1.2879999876022	-3.9581528315360
1.2920000553131	-3.7368160065000
1.2960000038147	-3.5300415759236
1.2999999523163	-3.3367195467293
1.3040000200272	-3.1558401543271
1.3079999685287	-2.9864859742588
1.3120000362396	-2.8278203787862
1.3159999847412	-2.6790828486252
1.3200000524521	-2.5395762812463
1.3240000009537	-2.4086654294867
1.3279999494553	-2.2857706038818
1.3320000171661	-2.1703610248762
1.3359999656677	-2.0619480919981
1.3400000333786	-1.9600884637095
1.3439999818802	-1.8643729267325
1.3480000495911	-1.7744263339634
1.3519999980927	-1.6899042585392
1.3559999465942	-1.6104908912558
1.3600000143051	-1.5358943203558
1.3639999628067	-1.4658472616431
1.3680000305176	-1.4001038391033
1.3719999790192	-1.3384374324622
1.3760000467300	-1.2806389019190
1.3799999952316	-1.2265144473367
1.3839999437332	-1.1758866732472
1.3880000114441	-1.1285904723661
1.3919999599457	-1.0844751977199
1.3960000276566	-1.0433986162877
1.3999999761581	-1.0052319146608
1.4040000438690	-0.96985282192085
1.4079999923706	-0.93715082158347
1.4119999408722	-0.90702060362931
1.4160000085831	-0.87936616914851
1.4199999570847	-0.85409623882333
1.4240000247955	-0.83112677560256
1.4279999732971	-0.81037832388040
1.4320000410080	-0.79177683461020
1.4359999895096	-0.77525103535041
1.4400000572205	-0.76073612379896
1.4440000057220	-0.74816814963894
1.4479999542236	-0.73748640355833
1.4520000219345	-0.72863430638152
1.4559999704361	-0.72155666089426
1.4600000381470	-0.71619860072969
1.4639999866486	-0.71250777777368
1.4680000543594	-0.71043403893634
1.4720000028610	-0.70992642571234
1.4759999513626	-0.71093545019402
1.4800000190735	-0.71341048138573
1.4839999675751	-0.71730279659977
1.4880000352859	-0.72256215137669
1.4919999837875	-0.72913866240535
1.4960000514984	-0.73698080899063
1.5000000000000	-0.74603892493371
1.5039999485016	-0.75625964613769
1.5080000162125	-0.76759011591464
1.5119999647141	-0.77997565695127
1.5160000324249	-0.79336126838696
1.5199999809265	-0.80769215136802
1.5240000486374	-0.82291013655395
1.5279999971390	-0.83895750493443
1.5319999456406	-0.85577612147559
1.5360000133514	-0.87330503295413
1.5399999618530	-0.89148765363856
1.5440000295639	-0.91026088979148
1.5479999780655	-0.92956693857157
1.5520000457764	-0.94934542573171
1.5559999942780	-0.96953611895987
1.5599999427795	-0.99008047219228
1.5640000104904	-1.0109224857183
1.5679999589920	-1.0320060783295
1.5720000267029	-1.0532747961354
1.5759999752045	-1.0746796787748
1.5800000429153	-1.0961677129082
1.5839999914169	-1.1176933569365
1.5880000591278	-1.1392128768171
1.5920000076294	-1.1606842011364
1.5959999561310	-1.1820723113100
1.6000000238419	-1.2033418109048
1.6039999723434	-1.2244645254774
1.6080000400543	-1.2454144781333
1.6119999885559	-1.2661713785639
1.6160000562668	-1.2867181587257
1.6200000047684	-1.3070440512020
1.6239999532700	-1.3271409550183
1.6280000209808	-1.3470052473813
1.6319999694824	-1.3666384152896
1.6360000371933	-1.3860472139791
1.6399999856949	-1.4052401507014
1.6440000534058	-1.4242314763335
1.6480000019073	-1.4430385661020
1.6519999504089	-1.4616820155973
1.6560000181198	-1.4801875461988
1.6599999666214	-1.4985820189404
1.6640000343323	-1.5168945374493
1.6679999828339	-1.5351591793542
1.6720000505447	-1.5534095862267
1.6759999990463	-1.5716834721475
1.6799999475479	-1.5900192789505
1.6840000152588	-1.6084555069911
1.6879999637604	-1.6270325243536
1.6920000314713	-1.6457933792459
1.6959999799728	-1.6647781140528
1.7000000476837	-1.6840292423497
1.7039999961853	-1.7035875051614
1.7079999446869	-1.7234956172753
1.7120000123978	-1.7437919250777
1.7159999608994	-1.7645192499710
1.7200000286102	-1.7857142706361
1.7239999771118	-1.8074146403849
1.7280000448227	-1.8296572475005
1.7319999933243	-1.8524765487351
1.7359999418259	-1.8759043450478
1.7400000095367	-1.8999723313502
1.7439999580383	-1.9247088563031
1.7480000257492	-1.9501416889967
1.7519999742508	-1.9762931554266
1.7560000419617	-2.0031874091382
1.7599999904633	-2.0308428296034
1.7640000581741	-2.0592775169780
1.7680000066757	-2.0885048709640
1.7719999551773	-2.1185379647804
1.7760000228882	-2.1493851259379
1.7799999713898	-2.1810540844712
1.7840000391006	-2.2135481050567
1.7879999876022	-2.2468687849192
1.7920000553131	-2.2810150945387
1.7960000038147	-2.3159814176062
1.7999999523163	-2.3517624628632
1.8040000200272	-2.3883502288405
1.8079999685287	-2.4257313452078
1.8120000362396	-2.4638934993247
1.8159999847412	-2.5028191200130
1.8200000524521	-2.5424912086991
1.8240000009537	-2.5828891868199
1.8279999494553	-2.6239895430261
1.8320000171661	-2.6657714925015
1.8359999656677	-2.7082086934024
1.8400000333786	-2.7512741892007
1.8439999818802	-2.7949408489239
1.8480000495911	-2.8391800003553
1.8519999980927	-2.8839636956048
1.8559999465942	-2.9292605274473
1.8600000143051	-2.9750424503626
1.8639999628067	-3.0212805942308
1.8680000305176	-3.0679434842208
1.8719999790192	-3.1150043469639
1.8760000467300	-3.1624339382959
1.8799999952316	-3.2102053499149
1.8839999437332	-3.2582943793302
1.8880000114441	-3.3066751554870
1.8919999599457	-3.3553245272410
1.8960000276566	-3.4042228088229
1.8999999761581	-3.4533501079243
1.9040000438690	-3.5026880565710
1.9079999923706	-3.5522249712808
1.9119999408722	-3.6019451283476
1.9160000085831	-3.6518401094357
1.9199999570847	-3.7019003149458
1.9240000247955	-3.7521210622075
1.9279999732971	-3.8024992993573
1.9320000410080	-3.8530321249045
1.9359999895096	-3.9037243714930
1.9400000572205	-3.9545775858874
1.9440000057220	-4.0055965381998
1.9479999542236	-4.0567891861562
1.9520000219345	-4.1081635090339
1.9559999704361	-4.1597328128014
1.9600000381470	-4.2115073746569
1.9639999866486	-4.2635014516544
1.9680000543594	-4.3157278119638
1.9720000028610	-4.3682018631150
1.9759999513626	-4.4209406967420
1.9800000190735	-4.4739570592250
1.9839999675751	-4.5272673238205
1.9880000352859	-4.5808872209053
1.9919999837875	-4.6348312217949
1.9960000514984	-4.6891118912502
2.0000000000000	-4.7437426906005
2.0039999485016	-4.7987341944767
2.0079998970032	-4.8540949521575
2.0120000839233	-4.9098333835279
2.0160000324249	-4.9659541821016
2.0199999809265	-5.0224601393960
2.0239999294281	-5.0793511181840
2.0280001163483	-5.1366265150782
2.0320000648499	-5.1942776900126
2.0360000133514	-5.2522989282016
2.0399999618530	-5.3106741174597
2.0439999103546	-5.3693936077284
2.0480000972748	-5.4284339845073
2.0520000457764	-5.4877746619011
2.0559999942780	-5.5473893619165
2.0599999427795	-5.6072483680501
2.0639998912811	-5.6673195371413
2.0680000782013	-5.7275664280457
2.0720000267029	-5.7879475832837
2.0759999752045	-5.8484208621074
2.0799999237061	-5.9089408262787
2.0840001106262	-5.9694577125878
2.0880000591278	-6.0299194977966
2.0920000076294	-6.0902715469264
2.0959999561310	-6.1504579974263
2.0999999046326	-6.2104221292977
2.1040000915527	-6.2701015749419
2.1080000400543	-6.3294391015669
2.1119999885559	-6.3883696545720
2.1159999370575	-6.4468372926030
2.1199998855591	-6.5047768949940
2.1240000724792	-6.5621285515690
2.1280000209808	-6.6188349141767
2.1319999694824	-6.6748369710645
2.1359999179840	-6.7300793536966
2.1400001049042	-6.7845097817065
2.1440000534058	-6.8380789215930
2.1480000019073	-6.8907393893958
2.1519999504089	-6.9424484090525
2.1559998989105	-6.9931697225708
2.1600000858307	-7.0428668668449
2.1640000343323	-7.0915111229521
2.1679999828339	-7.1390811175057
2.1719999313354	-7.1855545425789
2.1760001182556	-7.2309196451219
2.1800000667572	-7.2751687318039
2.1840000152588	-7.3182983590660
2.1879999637604	-7.3603126920601
2.1919999122620	-7.4012190701701
2.1960000991821	-7.4410323413814
2.2000000476837	-7.4797700364855
2.2039999961853	-7.5174582038458
2.2079999446869	-7.5541235617290
2.2119998931885	-7.5897984533846
2.2160000801086	-7.6245222674063
2.2200000286102	-7.6583339947185
2.2239999771118	-7.6912788155064
2.2279999256134	-7.7234053691429
2.2320001125336	-7.7547613656689
2.2360000610352	-7.7853999334530
2.2400000095367	-7.8153753820762
2.2439999580383	-7.8447433566484
2.2479999065399	-7.8735605386753
2.2520000934601	-7.9018844911733
2.2560000419617	-7.9297731741867
2.2599999904633	-7.9572837035628
2.2639999389648	-7.9844744037564
2.2679998874664	-8.0114029398666
2.2720000743866	-8.0381238939966
2.2760000228882	-8.0646933087436
2.2799999713898	-8.0911632796038
2.2839999198914	-8.1175890242465
2.2880001068115	-8.1440196942036
2.2920000553131	-8.1705024440949
2.2960000038147	-8.1970872650087
2.2999999523163	-8.2238172265345
2.3039999008179	-8.2507362396472
2.3080000877380	-8.2778828580648
2.3120000362396	-8.3052976681840
2.3159999847412	-8.3330179369766
2.3199999332428	-8.3610756214351
2.3239998817444	-8.3895042035698
2.3280000686646	-8.4183361895952
2.3320000171661	-8.4475977333620
2.3359999656677	-8.4773151640627
2.3399999141693	-8.5075162067149
2.3440001010895	-8.5382230024039
2.3480000495911	-8.5694599630948
2.3519999980927	-8.6012460038381
2.3559999465942	-8.6336025808804
2.3599998950958	-8.6665475527513
2.3640000820160	-8.7001017731798
2.3680000305176	-8.7342827223421
2.3719999790192	-8.7691081838147
2.3759999275208	-8.8045940787875
2.3800001144409	-8.8407616365843
2.3840000629425	-8.8776262411055
2.3880000114441	-8.9152076585965
2.3919999599457	-8.9535258485486
2.3959999084473	-8.9926001961396
2.4000000953674	-9.0324517514090
2.4040000438690	-9.0731032809812
2.4079999923706	-9.1145783223239
2.4119999408722	-9.1569035338815
2.4159998893738	-9.2001051251869
2.4200000762939	-9.2442124858046
2.4240000247955	-9.2892559230173
2.4279999732971	-9.3352698201538
2.4319999217987	-9.3822897274857
2.4360001087189	-9.4303535792991
2.4400000572205	-9.4795025109256
2.4440000057220	-9.5297767857268
2.4479999542236	-9.5812308855763
2.4519999027252	-9.6339066198891
2.4560000896454	-9.6878586269405
2.4600000381470	-9.7431376124742
2.4639999866486	-9.7998055271912
2.4679999351501	-9.8579234486387
2.4719998836517	-9.9175554531455
2.4760000705719	-9.9787715639906
2.4800000190735	-10.041645420768
2.4839999675751	-10.106239562713
2.4879999160767	-10.172641958728
2.4920001029968	-10.240929838114
2.4960000514984	-10.311193265040
2.5000000000000	-10.383523312861
2.5039999485016	-10.457999051975
2.5079998970032	-10.534726502161
2.5120000839233	-10.613812070850
2.5160000324249	-10.695352879988
2.5199999809265	-10.779462284694
2.5239999294281	-10.866247411764
2.5280001163483	-10.955823640210
2.5320000648499	-11.048328938366
2.5360000133514	-11.143885100581
2.5399999618530	-11.242616964825
2.5439999103546	-11.344675933807
2.5480000972748	-11.450199588724
2.5520000457764	-11.559341675626
2.5559999942780	-11.672261079693
2.5599999427795	-11.789121991971
2.5639998912811	-11.910098821246
2.5680000782013	-12.035374706352
2.5720000267029	-12.165137784810
2.5759999752045	-12.299592090103
2.5799999237061	-12.438947012832
2.5840001106262	-12.583426183852
2.5880000591278	-12.733264815857
2.5920000076294	-12.888713675489
2.5959999561310	-13.050035682039
2.5999999046326	-13.217512484852
2.6040000915527	-13.391440798340
2.6080000400543	-13.572141966077
2.6119999885559	-13.759953038567
2.6159999370575	-13.955237551110
2.6199998855591	-14.158385425983
2.6240000724792	-14.369814587396
2.6280000209808	-14.589974465527
2.6319999694824	-14.819344618026
2.6359999179840	-15.058452162435
2.6400001049042	-15.307853711577
2.6440000534058	-15.568161634680
2.6480000019073	-15.840028749654
2.6519999504089	-16.124167297065
2.6559998989105	-16.421344343893
2.6600000858307	-16.732386795222
2.6640000343323	-17.058189928228
2.6679999828339	-17.399709398759
2.6719999313354	-17.757965525602
2.6760001182556	-18.134035159505
2.6800000667572	-18.529042832520
2.6840000152588	-18.944134476109
2.6879999637604	-19.380430071886
2.6919999122620	-19.838963173516
2.6960000991821	-20.320564421396
2.7000000476837	-20.825699806466
2.7039999961853	-21.354193851606
2.7079999446869	-21.904809978682
2.7119998931885	-22.474657195239
2.7160000801086	-23.058298172542
2.7200000286102	-23.646533018205
2.7239999771118	-24.224887277322
2.7279999256134	-24.772019125805
2.7320001125336	-25.258834114506
2.7360000610352	-25.649497676179
2.7400000095367	-25.906024110937
2.7439999580383	-25.996735999849
2.7479999065399	-25.906027091700
2.7520000934601	-25.640021673369
2.7560000419617	-25.224284446985
2.7599999904633	-24.695189542419
2.7639999389648	-24.090360606693
2.7679998874664	-23.442215716807
2.7720000743866	-22.775540065442
2.7760000228882	-22.107708884556
2.7799999713898	-21.450084345004
2.7839999198914	-20.809629072341
2.7880001068115	-20.190249096807
2.7920000553131	-19.593830270627
2.7960000038147	-19.020967058211
2.7999999523163	-18.471452023224
2.8039999008179	-17.944597384128
2.8080000877380	-17.439451702220
2.8120000362396	-16.954929575142
2.8159999847412	-16.489904138221
2.8199999332428	-16.043248992242
2.8239998817444	-15.613878826460
2.8280000686646	-15.200760147449
2.8320000171661	-14.802924604953
2.8359999656677	-14.419465037898
2.8399999141693	-14.049544533499
2.8440001010895	-13.692391875078
2.8480000495911	-13.347292321378
2.8519999980927	-13.013584277837
2.8559999465942	-12.690667459894
2.8599998950958	-12.377981677488
2.8640000820160	-12.075014640964
2.8680000305176	-11.781292510366
2.8719999790192	-11.496379856557
2.8759999275208	-11.219875361976
2.8800001144409	-10.951403927955
2.8840000629425	-10.690621316098
2.8880000114441	-10.437208151132
2.8919999599457	-10.190870170240
2.8959999084473	-9.9513264049991
2.9000000953674	-9.7183242239951
2.9040000438690	-9.4916217639300
2.9079999923706	-9.2709960797905
2.9119999408722	-9.0562356735306
2.9159998893738	-8.8471445164677
2.9200000762939	-8.6435352436567
2.9240000247955	-8.4452376765254
2.9279999732971	-8.2520828111098
2.9319999217987	-8.0639183818882
2.9360001087189	-7.8805930487485
2.9400000572205	-7.7019693788257
2.9440000057220	-7.5279137873769
2.9479999542236	-7.3582988488922
2.9519999027252	-7.1930014864943
2.9560000896454	-7.0319077181561
2.9600000381470	-6.8749043272600
2.9639999866486	-6.7218844723656
2.9679999351501	-6.5727457785237
2.9719998836517	-6.4273875445075
2.9760000705719	-6.2857146133457
2.9800000190735	-6.1476347031868
2.9839999675751	-6.0130566125536
2.9879999160767	-5.8818920967005
2.9920001029968	-5.7540591871060
2.9960000514984	-5.6294723669354
3.0000000000000	-5.5080531705865
3.0039999485016	-5.3897244476279
3.0079998970032	-5.2744072820344
3.0120000839233	-5.1620297770692
3.0160000324249	-5.0525194889225
3.0199999809265	-4.9458030878315
3.0239999294281	-4.8418138041490
3.0280001163483	-4.7404813927272
3.0320000648499	-4.6417425672117
3.0360000133514	-4.5455307425590
3.0399999618530	-4.4517836806555
3.0439999103546	-4.3604383978769
3.0480000972748	-4.2714354353681
3.0520000457764	-4.1847133535439
3.0559999942780	-4.1002157965313
3.0599999427795	-4.0178851012069
3.0639998912811	-3.9376663999143
3.0680000782013	-3.8595064891455
3.0720000267029	-3.7833503321521
3.0759999752045	-3.7091467540079
3.0799999237061	-3.6368432500303
3.0840001106262	-3.5663941443231
3.0880000591278	-3.4977476763745
3.0920000076294	-3.4308586775811
3.0959999561310	-3.3656795640269
3.0999999046326	-3.3021656589318
3.1040000915527	-3.2402743821547
3.1080000400543	-3.1799617859151
3.1119999885559	-3.1211858921095
3.1159999370575	-3.0639066880264
3.1199998855591	-3.0080834189926
3.1240000724792	-2.9536799890865
3.1280000209808	-2.9006571066925
3.1319999694824	-2.8489785434502
3.1359999179840	-2.7986074922670
3.1400001049042	-2.7495118554426
3.1440000534058	-2.7016563334857
3.1480000019073	-2.6550096572033
3.1519999504089	-2.6095384138313
3.1559998989105	-2.5652126066774
3.1600000858307	-2.5220028430934
3.1640000343323	-2.4798781116554
3.1679999828339	-2.4388122239566
3.1719999313354	-2.3987759532259
3.1760001182556	-2.3597447195174
3.1800000667572	-2.3216902483617
3.1840000152588	-2.2845888304865
3.1879999637604	-2.2484161524318
3.1919999122620	-2.2131474872998
3.1960000991821	-2.1787603088439
3.2000000476837	-2.1452321052406
3.2039999961853	-2.1125424080772
3.2079999446869	-2.0806677182643
3.2119998931885	-2.0495882579353
3.2160000801086	-2.0192860190681
3.2200000286102	-1.9897388723663
3.2239999771118	-1.9609301699384
3.2279999256134	-1.9328391442834
3.2320001125336	-1.9054499960969
3.2360000610352	-1.8787445330188
3.2400000095367	-1.8527059077170
3.2439999580383	-1.8273169325428
3.2479999065399	-1.8025624412918
3.2520000934601	-1.7784261643607
3.2560000419617	-1.7548928147242
3.2599999904633	-1.7319480352124
3.2639999389648	-1.7095768065071
3.2679998874664	-1.6877642071422
3.2720000743866	-1.6664969009429
