#Parameters = {FSS=70; FSSX=1; FSSY=-1; MT=0.018; T=0.13; epsilon=9.236470422; g=-10; gl=15; gw=26; hg=18; hgl=-3; hgnd1up=0; hgw=0.5; hgx1=15; hgy1=10; hsll=1.5; hslw=14.5; n=2; phanup=50; phanx=0; phany=0; pl=26; plusex=0; plusey=0; plusl=6.5; plusw=2.5; plusx=4; plusy=4; pw=23; r=17.35655495771; sl=24; sll=-10; sll1=-16; slot1side=0; slot1up=-1; slot2side=0; slot2up=-8; slw=0.5; slw1=0.5; stripl=19; stripw=1.5; stubl=2; stubw=0.5; stubx=-2.5; stw=0.5; stw1=0; sty=1; sw=30; tand=0.513828503; x=17}
#"Frequency / GHz"	"S1,1 (33) [Magnitude]"
#-----------------------------------------
1.0000000000000	-2.9730557107389
1.0039999485016	-2.9826568164772
1.0080000162125	-2.9936956234971
1.0119999647141	-3.0065428815093
1.0160000324249	-3.0215762726054
1.0199999809265	-3.0391725915696
1.0240000486374	-3.0597161246214
1.0279999971390	-3.0835970025653
1.0319999456406	-3.1112121361128
1.0360000133514	-3.1429703735123
1.0399999618530	-3.1792887980702
1.0440000295639	-3.2206027451631
1.0479999780655	-3.2673631600455
1.0520000457764	-3.3200411617172
1.0559999942780	-3.3791339544694
1.0599999427795	-3.4451662775373
1.0640000104904	-3.5186936167380
1.0679999589920	-3.6003117578086
1.0720000267029	-3.6906543651439
1.0759999752045	-3.7904071137621
1.0800000429153	-3.9003070993641
1.0839999914169	-4.0211523880576
1.0880000591278	-4.1538086225623
1.0920000076294	-4.2992184221846
1.0959999561310	-4.4584066156422
1.1000000238419	-4.6324953869985
1.1039999723434	-4.8227135993160
1.1080000400543	-5.0304051306990
1.1119999885559	-5.2570496762788
1.1160000562668	-5.5042691874656
1.1200000047684	-5.7738519159256
1.1239999532700	-6.0677651809946
1.1280000209808	-6.3881750476178
1.1319999694824	-6.7374604383019
1.1360000371933	-7.1182304231493
1.1399999856949	-7.5333249018505
1.1440000534058	-7.9858024014794
1.1480000019073	-8.4788952843424
1.1519999504089	-9.0158997415611
1.1560000181198	-9.5999501727232
1.1599999666214	-10.233594035827
1.1640000343323	-10.917984572603
1.1679999828339	-11.651445606933
1.1720000505447	-12.426953926307
1.1759999990463	-13.227960821213
1.1799999475479	-14.022240750782
1.1840000152588	-14.754745522776
1.1879999637604	-15.344669339568
1.1920000314713	-15.697494394033
1.1959999799728	-15.739738212131
1.2000000476837	-15.459216577279
1.2039999961853	-14.912711633803
1.2079999446869	-14.192493752515
1.2120000123978	-13.386193690563
1.2159999608994	-12.557380727063
1.2200000286102	-11.744958889894
1.2239999771118	-10.969771816731
1.2280000448227	-10.241352481506
1.2319999933243	-9.5627203857764
1.2359999418259	-8.9333982239563
1.2400000095367	-8.3511458755803
1.2439999580383	-7.8129201193909
1.2480000257492	-7.3154260450631
1.2519999742508	-6.8553813117001
1.2560000419617	-6.4296572705622
1.2599999904633	-6.0353415948711
1.2640000581741	-5.6697573237368
1.2680000066757	-5.3304680876525
1.2719999551773	-5.0152620747928
1.2760000228882	-4.7221323823716
1.2799999713898	-4.4492663301936
1.2840000391006	-4.1950200637989
1.2879999876022	-3.9579056393814
1.2920000553131	-3.7365757593114
1.2960000038147	-3.5298088161033
1.2999999523163	-3.3364927631119
1.3040000200272	-3.1556206534454
1.3079999685287	-2.9862725582326
1.3120000362396	-2.8276141538148
1.3159999847412	-2.6788814236613
1.3200000524521	-2.5393804025749
1.3240000009537	-2.4084765037000
1.3279999494553	-2.2855864636426
1.3320000171661	-2.1701817810835
1.3359999656677	-2.0617746786073
1.3400000333786	-1.9599192972043
1.3439999818802	-1.8642089166594
1.3480000495911	-1.7742670348713
1.3519999980927	-1.6897489336417
1.3559999465942	-1.6103392261328
1.3600000143051	-1.5357473888753
1.3639999628067	-1.4657042490017
1.3680000305176	-1.3999656033674
1.3719999790192	-1.3383031065308
1.3760000467300	-1.2805076837032
1.3799999952316	-1.2263868061184
1.3839999437332	-1.1757628688882
1.3880000114441	-1.1284704451577
1.3919999599457	-1.0843581493691
1.3960000276566	-1.0432855718277
1.3999999761581	-1.0051215537711
1.4040000438690	-0.96974621141852
1.4079999923706	-0.93704726356011
1.4119999408722	-0.90692056001139
1.4160000085831	-0.87926951782837
1.4199999570847	-0.85400289700822
1.4240000247955	-0.83103609226447
1.4279999732971	-0.81029140488495
1.4320000410080	-0.79169300170464
1.4359999895096	-0.77517071923489
1.4400000572205	-0.76065874854076
1.4440000057220	-0.74809430935705
1.4479999542236	-0.73741655660856
1.4520000219345	-0.72856726920450
1.4559999704361	-0.72149361679342
1.4600000381470	-0.71613831134433
1.4639999866486	-0.71245187836746
1.4680000543594	-0.71038153184427
1.4720000028610	-0.70987770215518
1.4759999513626	-0.71088956762683
1.4800000190735	-0.71336924281772
1.4839999675751	-0.71726479865751
1.4880000352859	-0.72252850287680
1.4919999837875	-0.72910915189499
1.4960000514984	-0.73695568761060
1.5000000000000	-0.74601808386330
1.5039999485016	-0.75624294256695
1.5080000162125	-0.76757749451389
1.5119999647141	-0.77996737827375
1.5160000324249	-0.79335830823121
1.5199999809265	-0.80769315148827
1.5240000486374	-0.82291532951619
1.5279999971390	-0.83896775051348
1.5319999456406	-0.85579031807081
1.5360000133514	-0.87332472857482
1.5399999618530	-0.89151134671260
1.5440000295639	-0.91029055944270
1.5479999780655	-0.92960071330892
1.5520000457764	-0.94938309247358
1.5559999942780	-0.96957900833515
1.5599999427795	-0.99012973008263
1.5640000104904	-1.0109758199184
1.5679999589920	-1.0320631593081
1.5720000267029	-1.0533382189772
1.5759999752045	-1.0747461401867
1.5800000429153	-1.0962397089946
1.5839999914169	-1.1177700681831
1.5880000591278	-1.1392938213099
1.5920000076294	-1.1607710830558
1.5959999561310	-1.1821623346786
1.6000000238419	-1.2034364945812
1.6039999723434	-1.2245629927517
1.6080000400543	-1.2455173118500
1.6119999885559	-1.2662785653510
1.6160000562668	-1.2868291275832
1.6200000047684	-1.3071591010811
1.6239999532700	-1.3272596379499
1.6280000209808	-1.3471276866794
1.6319999694824	-1.3667651779797
1.6360000371933	-1.3861767373106
1.6399999856949	-1.4053724917454
1.6440000534058	-1.4243678154127
1.6480000019073	-1.4431782629736
1.6519999504089	-1.4618249750534
1.6560000181198	-1.4803332540427
1.6599999666214	-1.4987306496326
1.6640000343323	-1.5170461351268
1.6679999828339	-1.5353137830018
1.6720000505447	-1.5535670927435
1.6759999990463	-1.5718438003298
1.6799999475479	-1.5901812313472
1.6840000152588	-1.6086200804219
1.6879999637604	-1.6272001617009
1.6920000314713	-1.6459642706948
1.6959999799728	-1.6649512065520
1.7000000476837	-1.6842049772734
1.7039999961853	-1.7037667850457
1.7079999446869	-1.7236763795203
1.7120000123978	-1.7439768806588
1.7159999608994	-1.7647057158506
1.7200000286102	-1.7859033998670
1.7239999771118	-1.8076068757332
1.7280000448227	-1.8298520993435
1.7319999933243	-1.8526742887730
1.7359999418259	-1.8761047789447
1.7400000095367	-1.9001753625564
1.7439999580383	-1.9249145854465
1.7480000257492	-1.9503503311136
1.7519999742508	-1.9765060752211
1.7560000419617	-2.0034019511570
1.7599999904633	-2.0310608874699
1.7640000581741	-2.0594986272045
1.7680000066757	-2.0887298445735
1.7719999551773	-2.1187654273907
1.7760000228882	-2.1496166276483
1.7799999713898	-2.1812888153665
1.7840000391006	-2.2137857772702
1.7879999876022	-2.2471097194021
1.7920000553131	-2.2812588088078
1.7960000038147	-2.3162286027574
1.7999999523163	-2.3520135742028
1.8040000200272	-2.3886038713641
1.8079999685287	-2.4259885733961
1.8120000362396	-2.4641537977255
1.8159999847412	-2.5030825307952
1.8200000524521	-2.5427567454602
1.8240000009537	-2.5831581833144
1.8279999494553	-2.6242621041459
1.8320000171661	-2.6660460672197
1.8359999656677	-2.7084861567932
1.8400000333786	-2.7515530874843
1.8439999818802	-2.7952227137987
1.8480000495911	-2.8394634830412
1.8519999980927	-2.8842487864666
1.8559999465942	-2.9295471813461
1.8600000143051	-2.9753307470922
1.8639999628067	-3.0215703754127
1.8680000305176	-3.0682342601755
1.8719999790192	-3.1152948986061
1.8760000467300	-3.1627257873771
1.8799999952316	-3.2104966051562
1.8839999437332	-3.2585856784495
1.8880000114441	-3.3069649884298
1.8919999599457	-3.3556137529792
1.8960000276566	-3.4045106425692
1.8999999761581	-3.4536358099735
1.9040000438690	-3.5029730814283
1.9079999923706	-3.5525064572662
1.9119999408722	-3.6022231550864
1.9160000085831	-3.6521143327391
1.9199999570847	-3.7021702379545
1.9240000247955	-3.7523883974281
1.9279999732971	-3.8027611461172
1.9320000410080	-3.8532899028090
1.9359999895096	-3.9039766505361
1.9400000572205	-3.9548228078705
1.9440000057220	-4.0058358570555
1.9479999542236	-4.0570213880259
1.9520000219345	-4.1083891565550
1.9559999704361	-4.1599500591476
1.9600000381470	-4.2117167306467
1.9639999866486	-4.2637013310047
1.9680000543594	-4.3159190409859
1.9720000028610	-4.3683834449409
1.9759999513626	-4.4211109995174
1.9800000190735	-4.4741181146369
1.9839999675751	-4.5274162470584
1.9880000352859	-4.5810257204123
1.9919999837875	-4.6349579206840
1.9960000514984	-4.6892260099351
2.0000000000000	-4.7438431168751
2.0039999485016	-4.7988210608465
2.0079998970032	-4.8541683873644
2.0120000839233	-4.9098922357530
2.0160000324249	-4.9659979073320
2.0199999809265	-5.0224894908759
2.0239999294281	-5.0793652010676
2.0280001163483	-5.1366237908046
2.0320000648499	-5.1942588779284
2.0360000133514	-5.2522617699585
2.0399999618530	-5.3106213253247
2.0439999103546	-5.3693225377680
2.0480000972748	-5.4283443455131
2.0520000457764	-5.4876667895941
2.0559999942780	-5.5472629924209
2.0599999427795	-5.6071037553897
2.0639998912811	-5.6671547102113
2.0680000782013	-5.7273813677490
2.0720000267029	-5.7877429467484
2.0759999752045	-5.8481967055121
2.0799999237061	-5.9086950297300
2.0840001106262	-5.9691898921659
2.0880000591278	-6.0296310716467
2.0920000076294	-6.0899603776268
2.0959999561310	-6.1501266536221
2.0999999046326	-6.2100687814429
2.1040000915527	-6.2697270415838
2.1080000400543	-6.3290419243318
2.1119999885559	-6.3879521730311
2.1159999370575	-6.4463973376170
2.1199998855591	-6.5043157054620
2.1240000724792	-6.5616470489582
2.1280000209808	-6.6183309293965
2.1319999694824	-6.6743114481300
2.1359999179840	-6.7295340786220
2.1400001049042	-6.7839454060382
2.1440000534058	-6.8374945123721
2.1480000019073	-6.8901348336246
2.1519999504089	-6.9418264741920
2.1559998989105	-6.9925295411429
2.1600000858307	-7.0422083908003
2.1640000343323	-7.0908372989382
2.1679999828339	-7.1383907034363
2.1719999313354	-7.1848496397808
2.1760001182556	-7.2301995578585
2.1800000667572	-7.2744356490448
2.1840000152588	-7.3175528092100
2.1879999637604	-7.3595561243774
2.1919999122620	-7.4004520524544
2.1960000991821	-7.4402545876824
2.2000000476837	-7.4789847523808
2.2039999961853	-7.5166648246324
2.2079999446869	-7.5533243661673
2.2119998931885	-7.5889937304239
2.2160000801086	-7.6237134773495
2.2200000286102	-7.6575236724113
2.2239999771118	-7.6904661535179
2.2279999256134	-7.7225915107795
2.2320001125336	-7.7539487728981
2.2360000610352	-7.7845893518098
2.2400000095367	-7.8145677401020
2.2439999580383	-7.8439393886684
2.2479999065399	-7.8727635639779
2.2520000934601	-7.9010928888230
2.2560000419617	-7.9289893517170
2.2599999904633	-7.9565078276175
2.2639999389648	-7.9837078920029
2.2679998874664	-8.0106469266492
2.2720000743866	-8.0373790165130
2.2760000228882	-8.0639613128681
2.2799999713898	-8.0904443646502
2.2839999198914	-8.1168841509359
2.2880001068115	-8.1433308298859
2.2920000553131	-8.1698311375774
2.2960000038147	-8.1964334549668
2.2999999523163	-8.2231819469025
2.3039999008179	-8.2501183406459
2.3080000877380	-8.2772856832865
2.3120000362396	-8.3047209188217
2.3159999847412	-8.3324616969286
2.3199999332428	-8.3605413584565
2.3239998817444	-8.3889933050792
2.3280000686646	-8.4178469537139
2.3320000171661	-8.4471324777207
2.3359999656677	-8.4768761374725
2.3399999141693	-8.5071022719444
2.3440001010895	-8.5378351108263
2.3480000495911	-8.5690984823787
2.3519999980927	-8.6009104210401
2.3559999465942	-8.6332947600755
2.3599998950958	-8.6662688411834
2.3640000820160	-8.6998513636547
2.3680000305176	-8.7340606692566
2.3719999790192	-8.7689155473721
2.3759999275208	-8.8044312558863
2.3800001144409	-8.8406286164940
2.3840000629425	-8.8775237634888
2.3880000114441	-8.9151351772690
2.3919999599457	-8.9534848199484
2.3959999084473	-8.9925890689480
2.4000000953674	-9.0324728075440
2.4040000438690	-9.0731562969383
2.4079999923706	-9.1146627993688
2.4119999408722	-9.1570201179500
2.4159998893738	-9.2002529521281
2.4200000762939	-9.2443920786910
2.4240000247955	-9.2894679751219
2.4279999732971	-9.3355134917805
2.4319999217987	-9.3825661693526
2.4360001087189	-9.4306632104450
2.4400000572205	-9.4798416801305
2.4440000057220	-9.5301534139751
2.4479999542236	-9.5816333233165
2.4519999027252	-9.6343437150078
2.4560000896454	-9.6883263862663
2.4600000381470	-9.7436402660277
2.4639999866486	-9.8003403798792
2.4679999351501	-9.8584913008817
2.4719998836517	-9.9181564125741
2.4760000705719	-9.9794021190224
2.4800000190735	-10.042303019643
2.4839999675751	-10.106928244814
2.4879999160767	-10.173362930857
2.4920001029968	-10.241683416216
2.4960000514984	-10.311979236956
2.5000000000000	-10.384335351442
2.5039999485016	-10.458841354353
2.5079998970032	-10.535603919384
2.5120000839233	-10.614717080215
2.5160000324249	-10.696285872166
2.5199999809265	-10.780423453844
2.5239999294281	-10.867237629948
2.5280001163483	-10.956849030394
2.5320000648499	-11.049384756481
2.5360000133514	-11.144966719862
2.5399999618530	-11.243731456746
2.5439999103546	-11.345813652652
2.5480000972748	-11.451365710335
2.5520000457764	-11.560539478344
2.5559999942780	-11.673488077938
2.5599999427795	-11.790378085628
2.5639998912811	-11.911382900591
2.5680000782013	-12.036686735629
2.5720000267029	-12.166479614035
2.5759999752045	-12.300961524062
2.5799999237061	-12.440345245779
2.5840001106262	-12.584853706029
2.5880000591278	-12.734721380822
2.5920000076294	-12.890197848543
2.5959999561310	-13.051548817727
2.5999999046326	-13.219052262686
2.6040000915527	-13.393010707737
2.6080000400543	-13.573738833331
2.6119999885559	-13.761578730302
2.6159999370575	-13.956892252039
2.6199998855591	-14.160067471708
2.6240000724792	-14.371524958769
2.6280000209808	-14.591711215237
2.6319999694824	-14.821110665035
2.6359999179840	-15.060242776740
2.6400001049042	-15.309672122549
2.6440000534058	-15.570002837858
2.6480000019073	-15.841893963512
2.6519999504089	-16.126056292914
2.6559998989105	-16.423254140896
2.6600000858307	-16.734315311681
2.6640000343323	-17.060133101454
2.6679999828339	-17.401664510085
2.6719999313354	-17.759925961092
2.6760001182556	-18.135996793408
2.6800000667572	-18.530996408393
2.6840000152588	-18.946071810426
2.6879999637604	-19.382332874492
2.6919999122620	-19.840815913614
2.6960000991821	-20.322346022206
2.7000000476837	-20.827379641350
2.7039999961853	-21.355727262877
2.7079999446869	-21.906145612868
2.7119998931885	-22.475730673131
2.7160000801086	-23.059026178049
2.7200000286102	-23.646805147636
2.7239999771118	-24.224562677021
2.7279999256134	-24.770975422619
2.7320001125336	-25.256922843010
2.7360000610352	-25.646633864357
2.7400000095367	-25.902198566304
2.7439999580383	-25.992067477687
2.7479999065399	-25.900752557740
2.7520000934601	-25.634451630225
2.7560000419617	-25.218692362170
2.7599999904633	-24.689817394126
2.7639999389648	-24.085350832704
2.7679998874664	-23.437640142824
2.7720000743866	-22.771417040417
2.7760000228882	-22.104027152847
2.7799999713898	-21.446819054165
2.7839999198914	-20.806740324866
2.7880001068115	-20.187696865271
2.7920000553131	-19.591578399901
2.7960000038147	-19.018983841684
2.7999999523163	-18.469706790162
2.8039999008179	-17.943062829246
2.8080000877380	-17.438104867281
2.8120000362396	-16.953750513722
2.8159999847412	-16.488873802756
2.8199999332428	-16.042352630506
2.8239998817444	-15.613103355318
2.8280000686646	-15.200092008003
2.8320000171661	-14.802352107546
2.8359999656677	-14.418980229098
2.8399999141693	-14.049141061774
2.8440001010895	-13.692058836827
2.8480000495911	-13.347023494609
2.8519999980927	-13.013375587905
2.8559999465942	-12.690512216479
2.8599998950958	-12.377874924470
2.8640000820160	-12.074952348257
2.8680000305176	-11.781270927020
2.8719999790192	-11.496394203490
2.8759999275208	-11.219922844856
2.8800001144409	-10.951481582995
2.8840000629425	-10.690726203539
2.8880000114441	-10.437338553881
2.8919999599457	-10.191021823851
2.8959999084473	-9.9514996301656
2.9000000953674	-9.7185151980612
2.9040000438690	-9.4918299820443
2.9079999923706	-9.2712183835560
2.9119999408722	-9.0564705272097
2.9159998893738	-8.8473910542657
2.9200000762939	-8.6437939373923
2.9240000247955	-8.4455038509852
2.9279999732971	-8.2523574710173
2.9319999217987	-8.0641981506605
2.9360001087189	-7.8808804537369
2.9400000572205	-7.7022613993348
2.9440000057220	-7.5282096879081
2.9479999542236	-7.3585969241229
2.9519999027252	-7.1933032459187
2.9560000896454	-7.0322108313622
2.9600000381470	-6.8752077609612
2.9639999866486	-6.7221904928585
2.9679999351501	-6.5730511502650
2.9719998836517	-6.4276928880560
2.9760000705719	-6.2860191034045
2.9800000190735	-6.1479373127081
2.9839999675751	-6.0133554947508
2.9879999160767	-5.8821903410561
2.9920001029968	-5.7543551271717
2.9960000514984	-5.6297659149840
3.0000000000000	-5.5083438655879
3.0039999485016	-5.3900110975749
3.0079998970032	-5.2746922050267
3.0120000839233	-5.1623117784249
3.0160000324249	-5.0527960815148
3.0199999809265	-4.9460764826227
3.0239999294281	-4.8420831776165
3.0280001163483	-4.7407480290602
3.0320000648499	-4.6420047422565
3.0360000133514	-4.5457889156321
3.0399999618530	-4.4520381601219
3.0439999103546	-4.3606888318140
3.0480000972748	-4.2716794723379
3.0520000457764	-4.1849531597893
3.0559999942780	-4.1004520995320
3.0599999427795	-4.0181179672961
3.0639998912811	-3.9378954254110
3.0680000782013	-3.8597298184092
3.0720000267029	-3.7835691759183
3.0759999752045	-3.7093615920079
3.0799999237061	-3.6370552882327
3.0840001106262	-3.5666014730094
3.0880000591278	-3.4979515085101
3.0920000076294	-3.4310585965799
3.0959999561310	-3.3658746431038
3.0999999046326	-3.3023583479639
3.1040000915527	-3.2404614883327
3.1080000400543	-3.1801463171195
3.1119999885559	-3.1213664871967
3.1159999370575	-3.0640829264438
3.1199998855591	-3.0082570081392
3.1240000724792	-2.9538502769354
3.1280000209808	-2.9008234147494
3.1319999694824	-2.8491415189135
3.1359999179840	-2.7987675014930
3.1400001049042	-2.7496692508162
3.1440000534058	-2.7018109761060
3.1480000019073	-2.6551611292786
3.1519999504089	-2.6096867563430
3.1559998989105	-2.5653579009953
3.1600000858307	-2.5221453942339
3.1640000343323	-2.4800180697407
3.1679999828339	-2.4389490591265
3.1719999313354	-2.3989114976036
3.1760001182556	-2.3598773990951
3.1800000667572	-2.3218208470455
3.1840000152588	-2.2847168876377
3.1879999637604	-2.2485418194743
3.1919999122620	-2.2132709355005
3.1960000991821	-2.1788815267507
3.2000000476837	-2.1453525470040
3.2039999961853	-2.1126590018564
3.2079999446869	-2.0807832723098
3.2119998931885	-2.0497020398334
3.2160000801086	-2.0193967902323
3.2200000286102	-1.9898485062535
3.2239999771118	-1.9610369291029
3.2279999256134	-1.9329452067626
3.2320001125336	-1.9055545069390
3.2360000610352	-1.8788464453297
3.2400000095367	-1.8528070344154
3.2439999580383	-1.8274162692410
3.2479999065399	-1.8026604064989
3.2520000934601	-1.7785221851287
3.2560000419617	-1.7549870764079
3.2599999904633	-1.7320410449215
3.2639999389648	-1.7096674026422
3.2679998874664	-1.6878531096483
3.2720000743866	-1.6665839687626
