#Parameters = {er=8.939737856; tanD=0.520427199; PHANUP=14; a=0.95; b=0.5; c=1; d=1; gl=0; gw=30; l=8.5; l1=11; l2=13; mt=0.018; r=14; s=2; sf=1; sf1=1; sgl=2; sgw=2; sl=53; sl1=60; slotl=-2; slotw=1; sls=0; stripl=15; stripw=0.5; sw=30; t=0.13; w=1}
#"Frequency / GHz"	"S1,1 (4) [Magnitude]"
#----------------------------------------
0.0000000000000	-35.168473637255
0.014999999664724	-34.698896510805
0.029999999329448	-33.543693457177
0.045000001788139	-32.137315658777
0.059999998658895	-30.747513697684
0.075000002980232	-29.476583603650
0.090000003576279	-28.347447266142
0.10499999672174	-27.353911012241
0.11999999731779	-26.481189102297
0.13500000536442	-25.713189125918
0.15000000596046	-25.034757628339
0.16500000655651	-24.432110968316
0.18000000715256	-23.892664009642
0.19499999284744	-23.404694793831
0.20999999344349	-22.957013794820
0.22499999403954	-22.538735872770
0.23999999463558	-22.139151215463
0.25499999523163	-21.747768611951
0.27000001072884	-21.354511352285
0.28499999642372	-20.950072448630
0.30000001192093	-20.526399145538
0.31499999761581	-20.077190426557
0.33000001311302	-19.598326190662
0.34499999880791	-19.088106686778
0.36000001430511	-18.547221521479
0.37500000000000	-17.978463950021
0.38999998569489	-17.386228469702
0.40500000119209	-16.775938107302
0.41999998688698	-16.153450033729
0.43500000238419	-15.524584276565
0.44999998807907	-14.894774990853
0.46500000357628	-14.268851315359
0.47999998927116	-13.650940826581
0.49500000476837	-13.044459908164
0.50999999046326	-12.452146972217
0.52499997615814	-11.876140566782
0.54000002145767	-11.318058616503
0.55500000715256	-10.779084640202
0.56999999284744	-10.260036177441
0.58499997854233	-9.7614443575646
0.60000002384186	-9.2836089065914
0.61500000953674	-8.8266411485686
0.62999999523163	-8.3905099290456
0.64499998092651	-7.9750670258877
0.66000002622604	-7.5800799787233
0.67500001192093	-7.2052497401525
0.68999999761581	-6.8502247709721
0.70499998331070	-6.5146199043494
0.72000002861023	-6.1980184696214
0.73500001430511	-5.8999919553556
0.75000000000000	-5.6200975641523
0.76499998569489	-5.3578924147553
0.77999997138977	-5.1129313836688
0.79500001668930	-4.8847741313126
0.81000000238419	-4.6729947582490
0.82499998807907	-4.4771741953319
0.83999997377396	-4.2969115775417
0.85500001907349	-4.1318263221705
0.87000000476837	-3.9815506983487
0.88499999046326	-3.8457484542431
0.89999997615814	-3.7241015691649
0.91500002145767	-3.6163196324100
0.93000000715256	-3.5221417028668
0.94499999284744	-3.4413300222026
0.95999997854233	-3.3736831507131
0.97500002384186	-3.3190213353709
0.99000000953674	-3.2772031416451
1.0049999952316	-3.2481156386227
1.0199999809265	-3.2316762435583
1.0349999666214	-3.2278387275904
1.0499999523163	-3.2365853042342
1.0650000572205	-3.2579330479265
1.0800000429153	-3.2919305945465
1.0950000286102	-3.3386599024472
1.1100000143051	-3.3982335762512
1.1250000000000	-3.4707974820920
1.1399999856949	-3.5565295181569
1.1549999713898	-3.6556401002542
1.1699999570847	-3.7683680828945
1.1849999427795	-3.8949815154057
1.2000000476837	-4.0357881435258
1.2150000333786	-4.1911154037570
1.2300000190735	-4.3613268509595
1.2450000047684	-4.5468140527154
1.2599999904633	-4.7480028149208
1.2749999761581	-4.9653439150550
1.2899999618530	-5.1993225035062
1.3049999475479	-5.4504604259032
1.3200000524521	-5.7193078954647
1.3350000381470	-6.0064591043275
1.3500000238419	-6.3125433952796
1.3650000095367	-6.6382394859128
1.3799999952316	-6.9842728541487
1.3949999809265	-7.3514303358043
1.4099999666214	-7.7405623493836
1.4249999523163	-8.1525978007408
1.4400000572205	-8.5885590226475
1.4550000429153	-9.0495705793180
1.4700000286102	-9.5368929594084
1.4850000143051	-10.051939387794
1.5000000000000	-10.596307420625
1.5149999856949	-11.171831975854
1.5299999713898	-11.780619866383
1.5449999570847	-12.425132691084
1.5599999427795	-13.108263815333
1.5750000476837	-13.833453006784
1.5900000333786	-14.604843275702
1.6050000190735	-15.427476815160
1.6200000047684	-16.307584740049
1.6349999904633	-17.252986275286
1.6499999761581	-18.273670385586
1.6649999618530	-19.382661438916
1.6799999475479	-20.597372418684
1.6950000524521	-21.941764684657
1.7100000381470	-23.450029532330
1.7250000238419	-25.173188942144
1.7400000095367	-27.191885229145
1.7549999952316	-29.643386430154
1.7699999809265	-32.784260510438
1.7849999666214	-37.130522483984
1.7999999523163	-42.964924259544
1.8150000572205	-41.881121893665
1.8300000429153	-36.834937049507
1.8450000286102	-33.451731935928
1.8600000143051	-31.105779071569
1.8750000000000	-29.362772661945
1.8899999856949	-28.004655215315
1.9049999713898	-26.911339826926
1.9199999570847	-26.010433656648
1.9349999427795	-25.255098090457
1.9500000476837	-24.613332206302
1.9650000333786	-24.062322203177
1.9800000190735	-23.585255425011
1.9950000047684	-23.169418443402
2.0099999904633	-22.805003810412
2.0250000953674	-22.484335049241
2.0399999618530	-22.201339218770
2.0550000667572	-21.951182682182
2.0699999332428	-21.729998626303
2.0850000381470	-21.534688791434
2.0999999046326	-21.362767885942
2.1150000095367	-21.212235585565
2.1300001144409	-21.081466236331
2.1449999809265	-20.969117151690
2.1600000858307	-20.874045002833
2.1749999523163	-20.795218659164
2.1900000572205	-20.731648933976
2.2049999237061	-20.682306896076
2.2200000286102	-20.646049642200
2.2349998950958	-20.621532688613
2.2500000000000	-20.607140587703
2.2650001049042	-20.600891612548
2.2799999713898	-20.600367335960
2.2950000762939	-20.602637900708
2.3099999427795	-20.604206282937
2.3250000476837	-20.600990023842
2.3399999141693	-20.588349657315
2.3550000190735	-20.561177880367
2.3699998855591	-20.514088501227
2.3849999904633	-20.441681532443
2.4000000953674	-20.338902609730
2.4149999618530	-20.201454061601
2.4300000667572	-20.026188912693
2.4449999332428	-19.811443777760
2.4600000381470	-19.557215162415
2.4749999046326	-19.265171266287
2.4900000095367	-18.938455698023
2.5050001144409	-18.581385198541
2.5199999809265	-18.199019922303
2.5350000858307	-17.796777490318
2.5499999523163	-17.380070367717
2.5650000572205	-16.954023153317
2.5799999237061	-16.523296354458
2.5950000286102	-16.091984147462
2.6099998950958	-15.663576527692
2.6250000000000	-15.240980114960
2.6400001049042	-14.826560512515
2.6549999713898	-14.422194266702
2.6700000762939	-14.029342455225
2.6849999427795	-13.649111677939
2.7000000476837	-13.282305688246
2.7149999141693	-12.929492782549
2.7300000190735	-12.591033107742
2.7449998855591	-12.267132070806
2.7599999904633	-11.957861046496
2.7750000953674	-11.663192598236
2.7899999618530	-11.383014296622
2.8050000667572	-11.117151941904
2.8199999332428	-10.865379681944
2.8350000381470	-10.627437377059
2.8499999046326	-10.403028356796
2.8650000095367	-10.191842674259
2.8800001144409	-9.9935453730245
2.8949999809265	-9.8077989918103
2.9100000858307	-9.6342495754240
2.9249999523163	-9.4725481003041
2.9400000572205	-9.3223339961135
2.9549999237061	-9.1832529812509
2.9700000286102	-9.0549510179952
2.9849998950958	-8.9370731203712
3.0000000000000	-8.8292692203812
3.0150001049042	-8.7311959422605
3.0299999713898	-8.6425125096890
3.0450000762939	-8.5628845411639
3.0599999427795	-8.4919812124996
3.0750000476837	-8.4294851161036
3.0899999141693	-8.3750791299394
3.1050000190735	-8.3284587019372
3.1199998855591	-8.2893248677525
3.1349999904633	-8.2573915611847
3.1500000953674	-8.2323776008442
3.1649999618530	-8.2140178027496
3.1800000667572	-8.2020558135327
3.1949999332428	-8.1962508742806
3.2100000381470	-8.1963696815710
3.2249999046326	-8.2022000317297
3.2400000095367	-8.2135404114615
3.2550001144409	-8.2302084167692
3.2699999809265	-8.2520381207558
3.2850000858307	-8.2788793597546
3.2999999523163	-8.3106024338159
3.3150000572205	-8.3470978984441
3.3299999237061	-8.3882745613219
3.3450000286102	-8.4340579645656
3.3599998950958	-8.4844022735511
3.3750000000000	-8.5392733149579
3.3900001049042	-8.5986617128195
3.4049999713898	-8.6625765453263
3.4200000762939	-8.7310446882996
3.4349999427795	-8.8041122844986
3.4500000476837	-8.8818449695334
3.4649999141693	-8.9643233561325
3.4800000190735	-9.0516407787303
3.4949998855591	-9.1439097785719
3.5099999904633	-9.2412512050485
3.5250000953674	-9.3437983858986
3.5399999618530	-9.4516979706281
3.5550000667572	-9.5651024281789
3.5699999332428	-9.6841714378624
3.5850000381470	-9.8090692097197
3.5999999046326	-9.9399685120053
3.6150000095367	-10.077044618258
3.6300001144409	-10.220475764881
3.6449999809265	-10.370438642134
3.6600000858307	-10.527119074841
3.6749999523163	-10.690695618241
3.6900000572205	-10.861356340478
3.7049999237061	-11.039285119908
3.7200000286102	-11.224670992239
3.7349998950958	-11.417709974393
3.7500000000000	-11.618597688014
3.7650001049042	-11.827541262005
3.7799999713898	-12.044755907028
3.7950000762939	-12.270473315003
3.8099999427795	-12.504940469034
3.8250000476837	-12.748430059035
3.8399999141693	-13.001238991093
3.8550000190735	-13.263704278635
3.8699998855591	-13.536206636327
3.8849999904633	-13.819177339396
3.9000000953674	-14.113113025808
3.9149999618530	-14.418587218548
3.9300000667572	-14.736266777070
3.9449999332428	-15.066926849795
3.9600000381470	-15.411469042289
3.9749999046326	-15.770952008884
3.9900000095367	-16.146614390046
4.0050001144409	-16.539913740080
4.0199999809265	-16.952559359972
4.0349998474121	-17.386577130932
4.0500001907349	-17.844360954668
4.0650000572205	-18.328761477429
4.0799999237061	-18.843195039875
4.0949997901917	-19.391775947520
4.1100001335144	-19.979510728915
4.1250000000000	-20.612553233694
4.1399998664856	-21.298573613296
4.1550002098083	-22.047279892221
4.1700000762939	-22.871198630737
4.1849999427795	-23.786888943385
4.1999998092651	-24.816866047995
4.2150001525879	-25.992881033815
4.2300000190735	-27.361790994915
4.2449998855591	-28.997012672580
4.2600002288818	-31.023292019055
4.2750000953674	-33.678867282615
4.2899999618530	-37.509210186074
4.3049998283386	-44.181418462361
4.3200001716614	-49.094331880342
4.3350000381470	-39.957882227656
4.3499999046326	-35.159475162796
4.3649997711182	-32.047900808471
4.3800001144409	-29.754412896947
4.3949999809265	-27.942080914180
4.4099998474121	-26.446961171652
4.4250001907349	-25.177244460882
4.4400000572205	-24.076435720478
4.4549999237061	-23.107328745775
4.4699997901917	-22.244144233303
4.4850001335144	-21.468288369536
4.5000000000000	-20.765913198301
4.5149998664856	-20.126427583905
4.5300002098083	-19.541545039090
4.5450000762939	-19.004657640165
4.5599999427795	-18.510399970558
4.5749998092651	-18.054355698598
4.5900001525879	-17.632832242393
4.6050000190735	-17.242703712497
4.6199998855591	-16.881293808092
4.6350002288818	-16.546279927680
4.6500000953674	-16.235629874398
4.6649999618530	-15.947539356712
4.6799998283386	-15.680393769209
4.6950001716614	-15.432732544362
4.7100000381470	-15.203218708309
4.7249999046326	-14.990616038890
4.7399997711182	-14.793777198150
4.7550001144409	-14.611613039689
4.7699999809265	-14.443097206576
4.7849998474121	-14.287244014296
4.8000001907349	-14.143101123811
4.8150000572205	-14.009744799777
4.8299999237061	-13.886275433855
4.8449997901917	-13.771806756427
4.8600001335144	-13.665470758320
4.8750000000000	-13.566411136351
4.8899998664856	-13.473782442181
4.9050002098083	-13.386749470797
4.9200000762939	-13.304494344786
4.9349999427795	-13.226209655692
4.9499998092651	-13.151110252913
4.9650001525879	-13.078431206022
4.9800000190735	-13.007433710888
4.9949998855591	-12.937411242285
5.0100002288818	-12.867689281810
5.0250000953674	-12.797639964059
5.0399999618530	-12.726680224808
5.0549998283386	-12.654270722939
5.0700001716614	-12.579932664491
5.0850000381470	-12.503242178054
5.0999999046326	-12.423828532425
5.1149997711182	-12.341383789345
5.1300001144409	-12.255658050563
5.1449999809265	-12.166451208388
5.1599998474121	-12.073623683866
5.1750001907349	-11.977078337079
5.1900000572205	-11.876767171154
5.2049999237061	-11.772676306818
5.2199997901917	-11.664831330124
5.2350001335144	-11.553282052224
5.2500000000000	-11.438102889228
5.2649998664856	-11.319383182193
5.2800002098083	-11.197228145158
5.2950000762939	-11.071752551332
5.3099999427795	-10.943074774151
5.3249998092651	-10.811318833165
5.3400001525879	-10.676610838215
5.3550000190735	-10.539076994055
5.3699998855591	-10.398847127181
5.3850002288818	-10.256048050386
5.4000000953674	-10.110812031958
5.4149999618530	-9.9632741051476
5.4299998283386	-9.8135721854941
5.4450001716614	-9.6618511707208
5.4600000381470	-9.5082639116839
5.4749999046326	-9.3529692772395
5.4899997711182	-9.1961375386829
5.5050001144409	-9.0379467525955
5.5199999809265	-8.8785904295596
5.5349998474121	-8.7182658346905
5.5500001907349	-8.5571835697613
5.5650000572205	-8.3955615235581
5.5799999237061	-8.2336271079944
5.5949997901917	-8.0716163561953
5.6100001335144	-7.9097624873468
5.6250000000000	-7.7483094044081
5.6399998664856	-7.5874961744095
5.6550002098083	-7.4275657363748
5.6700000762939	-7.2687529858071
5.6849999427795	-7.1112910202728
5.6999998092651	-6.9554016704660
5.7150001525879	-6.8013003209546
5.7300000190735	-6.6491920355240
5.7449998855591	-6.4992671845971
5.7600002288818	-6.3517050992772
5.7750000953674	-6.2066694384034
5.7899999618530	-6.0643054353560
5.8049998283386	-5.9247477053612
5.8200001716614	-5.7881111614382
5.8350000381470	-5.6544925835600
5.8499999046326	-5.5239736411609
5.8649997711182	-5.3966221100822
5.8800001144409	-5.2724838482501
5.8949999809265	-5.1515919516791
5.9099998474121	-5.0339615969124
5.9250001907349	-4.9195999572036
5.9400000572205	-4.8084881899125
5.9549999237061	-4.7006053546856
5.9699997901917	-4.5959131464073
5.9850001335144	-4.4943614918359
6.0000000000000	-4.3958903456112
6.0149998664856	-4.3004321612161
6.0300002098083	-4.2079084957119
6.0450000762939	-4.1182347920429
6.0599999427795	-4.0313220743529
6.0749998092651	-3.9470725942093
6.0900001525879	-3.8653917532913
6.1050000190735	-3.7861752556648
6.1199998855591	-3.7093221454695
6.1350002288818	-3.6347304727341
6.1500000953674	-3.5622965389621
6.1649999618530	-3.4919228752344
6.1799998283386	-3.4235115556533
6.1950001716614	-3.3569701790749
6.2100000381470	-3.2922128767368
6.2249999046326	-3.2291545527369
6.2399997711182	-3.1677219057767
6.2550001144409	-3.1078435371205
6.2699999809265	-3.0494577458633
6.2849998474121	-2.9925083567240
6.3000001907349	-2.9369506099406
6.3150000572205	-2.8827436779131
6.3299999237061	-2.8298549102214
6.3449997901917	-2.7782583379553
6.3600001335144	-2.7279375962417
6.3750000000000	-2.6788813275980
6.3899998664856	-2.6310817013073
6.4050002098083	-2.5845409699942
6.4200000762939	-2.5392631213557
6.4349999427795	-2.4952528987672
6.4499998092651	-2.4525232696409
6.4650001525879	-2.4110884195705
6.4800000190735	-2.3709612997665
6.4949998855591	-2.3321559555568
6.5100002288818	-2.2946881159268
6.5250000953674	-2.2585676244331
6.5399999618530	-2.2238050257844
6.5549998283386	-2.1904087824710
6.5700001716614	-2.1583825356525
6.5850000381470	-2.1277242253911
6.5999999046326	-2.0984281075210
6.6149997711182	-2.0704841623328
6.6300001144409	-2.0438737042110
6.6449999809265	-2.0185784717111
6.6599998474121	-1.9945641071748
6.6750001907349	-1.9717997485046
6.6900000572205	-1.9502432880834
6.7049999237061	-1.9298468951417
6.7199997901917	-1.9105621258080
6.7350001335144	-1.8923259175305
6.7500000000000	-1.8750826684962
6.7649998664856	-1.8587613361949
6.7800002098083	-1.8432951140744
6.7950000762939	-1.8286114683823
6.8099999427795	-1.8146374930516
6.8249998092651	-1.8012986253527
6.8400001525879	-1.7885207272714
6.8550000190735	-1.7762308794674
6.8699998855591	-1.7643595341252
6.8850002288818	-1.7528356393899
6.9000000953674	-1.7415974442173
6.9149999618530	-1.7305853645850
6.9299998283386	-1.7197470847026
6.9450001716614	-1.7090339792740
6.9600000381470	-1.6984065005428
6.9749999046326	-1.6878304280227
6.9899997711182	-1.6772821241925
7.0050001144409	-1.6667433779065
7.0199999809265	-1.6562065759974
7.0349998474121	-1.6456688846306
7.0500001907349	-1.6351356856806
7.0650000572205	-1.6246223957989
7.0799999237061	-1.6141493239368
7.0949997901917	-1.6037415834997
7.1100001335144	-1.5934317583438
7.1250000000000	-1.5832553505235
7.1399998664856	-1.5732538134325
7.1550002098083	-1.5634692896979
7.1700000762939	-1.5539461712499
7.1849999427795	-1.5447281509666
7.1999998092651	-1.5358610804571
7.2150001525879	-1.5273872536750
7.2300000190735	-1.5193474417911
7.2449998855591	-1.5117789811107
7.2600002288818	-1.5047160321655
7.2750000953674	-1.4981855001495
7.2899999618530	-1.4922103611836
7.3049998283386	-1.4868076801338
7.3200001716614	-1.4819858524945
7.3350000381470	-1.4777504074798
7.3499999046326	-1.4740952502794
7.3649997711182	-1.4710097878437
7.3800001144409	-1.4684756604508
7.3949999809265	-1.4664699348843
7.4099998474121	-1.4649584180057
7.4250001907349	-1.4639046824798
7.4400000572205	-1.4632659914388
7.4549999237061	-1.4629940079167
7.4699997901917	-1.4630394503527
7.4850001335144	-1.4633448905879
7.5000000000000	-1.4638557347207
7.5149998664856	-1.4645141792449
7.5300002098083	-1.4652624047099
7.5450000762939	-1.4660446784310
7.5599999427795	-1.4668051310751
7.5749998092651	-1.4674934635495
7.5900001525879	-1.4680617955174
7.6050000190735	-1.4684686022479
7.6199998855591	-1.4686761643356
7.6350002288818	-1.4686547667098
7.6500000953674	-1.4683818255038
7.6649999618530	-1.4678392128412
7.6799998283386	-1.4670216304362
7.6950001716614	-1.4659251947857
7.7100000381470	-1.4645585858127
7.7249999046326	-1.4629358110183
7.7399997711182	-1.4610785847761
7.7550001144409	-1.4590135477005
7.7699999809265	-1.4567758765729
7.7849998474121	-1.4544044805782
7.8000001907349	-1.4519409641010
7.8150000572205	-1.4494312465086
7.8299999237061	-1.4469269884568
7.8449997901917	-1.4444751199385
7.8600001335144	-1.4421271955273
7.8750000000000	-1.4399335604354
7.8899998664856	-1.4379369516658
7.9050002098083	-1.4361862622585
7.9200000762939	-1.4347198250873
7.9349999427795	-1.4335739122904
7.9499998092651	-1.4327777899161
7.9650001525879	-1.4323567690301
7.9800000190735	-1.4323297770275
7.9949998855591	-1.4327029668827
8.0100002288818	-1.4334837186060
8.0249996185303	-1.4346646523999
8.0399999618530	-1.4362363172028
8.0550003051758	-1.4381775439502
8.0699996948242	-1.4404649548162
8.0850000381470	-1.4430639789434
8.1000003814697	-1.4459370121553
8.1149997711182	-1.4490424245899
8.1300001144409	-1.4523314664328
8.1450004577637	-1.4557510135645
8.1599998474121	-1.4592485590308
8.1750001907349	-1.4627707060447
8.1899995803833	-1.4662597810700
8.2049999237061	-1.4696616677425
8.2200002670288	-1.4729228228869
8.2349996566772	-1.4759939864872
8.2500000000000	-1.4788295877743
8.2650003433228	-1.4813865217249
8.2799997329712	-1.4836320037213
8.2950000762939	-1.4855346148692
8.3100004196167	-1.4870735284093
8.3249998092651	-1.4882358034211
8.3400001525879	-1.4890139578282
8.3549995422363	-1.4894082118512
8.3699998855591	-1.4894287290557
8.3850002288818	-1.4890930403974
8.3999996185303	-1.4884256304254
8.4149999618530	-1.4874569551393
8.4300003051758	-1.4862264471957
8.4449996948242	-1.4847743242421
8.4600000381470	-1.4831493171559
8.4750003814697	-1.4814000703334
8.4899997711182	-1.4795834809496
8.5050001144409	-1.4777506612411
8.5200004577637	-1.4759551920954
8.5349998474121	-1.4742542068140
8.5500001907349	-1.4726961923917
8.5649995803833	-1.4713298645257
8.5799999237061	-1.4702002311382
8.5950002670288	-1.4693449469690
8.6099996566772	-1.4687967579899
8.6250000000000	-1.4685821695012
