#Parameters = {er=8.971684525; tanD=0.519713008; PHANUP=14; a=0.95; b=0.5; c=1; d=1; gl=0; gw=30; l=8.5; l1=11; l2=13; mt=0.018; r=14; s=2; sf=1; sf1=1; sgl=2; sgw=2; sl=53; sl1=60; slotl=-2; slotw=1; sls=0; stripl=15; stripw=0.5; sw=30; t=0.13; w=1}
#"Frequency / GHz"	"S1,1 (7) [Magnitude]"
#----------------------------------------
0.0000000000000	-35.168171239784
0.014999999664724	-34.698227562567
0.029999999329448	-33.542266078870
0.045000001788139	-32.135211463982
0.059999998658895	-30.744939507348
0.075000002980232	-29.473718040767
0.090000003576279	-28.344405082779
0.10499999672174	-27.350776278801
0.11999999731779	-26.478019517606
0.13500000536442	-25.710026082106
0.15000000596046	-25.031633628060
0.16500000655651	-24.429055570122
0.18000000715256	-23.889698254419
0.19499999284744	-23.401836397233
0.20999999344349	-22.954283730513
0.22499999403954	-22.536143017456
0.23999999463558	-22.136707109482
0.25499999523163	-21.745474931520
0.27000001072884	-21.352363508718
0.28499999642372	-20.948062420840
0.30000001192093	-20.524507358544
0.31499999761581	-20.075394429359
0.33000001311302	-19.596597321021
0.34499999880791	-19.086413866425
0.36000001430511	-18.545533355049
0.37500000000000	-17.976751406236
0.38999998569489	-17.384470768864
0.40500000119209	-16.774115235584
0.41999998688698	-16.151548343013
0.43500000238419	-15.522599403197
0.44999998807907	-14.892702493036
0.46500000357628	-14.266693587150
0.47999998927116	-13.648701104628
0.49500000476837	-13.042144255920
0.50999999046326	-12.449763332352
0.52499997615814	-11.873695993310
0.54000002145767	-11.315563982638
0.55500000715256	-10.776545540159
0.56999999284744	-10.257461593306
0.58499997854233	-9.7588425308155
0.60000002384186	-9.2809882765444
0.61500000953674	-8.8240079692189
0.62999999523163	-8.3878706250072
0.64499998092651	-7.9724285687226
0.66000002622604	-7.5774488965686
0.67500001192093	-7.2026306393121
0.68999999761581	-6.8476233956631
0.70499998331070	-6.5120391083687
0.72000002861023	-6.1954651567451
0.73500001430511	-5.8974684498674
0.75000000000000	-5.6176085436727
0.76499998569489	-5.3554386022065
0.77999997138977	-5.1105185001053
0.79500001668930	-4.8824057126976
0.81000000238419	-4.6706705671556
0.82499998807907	-4.4748982384336
0.83999997377396	-4.2946877238185
0.85500001907349	-4.1296537991266
0.87000000476837	-3.9794330096475
0.88499999046326	-3.8436877405036
0.89999997615814	-3.7221000786453
0.91500002145767	-3.6143793070656
0.93000000715256	-3.5202647233608
0.94499999284744	-3.4395179201518
0.95999997854233	-3.3719372450887
0.97500002384186	-3.3173448845678
0.99000000953674	-3.2755989489537
1.0049999952316	-3.2465860007037
1.0199999809265	-3.2302247670575
1.0349999666214	-3.2264677881297
1.0499999523163	-3.2352989587373
1.0650000572205	-3.2567335747384
1.0800000429153	-3.2908233802963
1.0950000286102	-3.3376483074967
1.1100000143051	-3.3973230833289
1.1250000000000	-3.4699932654136
1.1399999856949	-3.5558376841484
1.1549999713898	-3.6550640657339
1.1699999570847	-3.7679140767081
1.1849999427795	-3.8946594852580
1.2000000476837	-4.0356029613888
1.2150000333786	-4.1910760093334
1.2300000190735	-4.3614411571636
1.2450000047684	-4.5470921455727
1.2599999904633	-4.7484532674112
1.2749999761581	-4.9659753566307
1.2899999618530	-5.2001493785925
1.3049999475479	-5.4514901365590
1.3200000524521	-5.7205561495450
1.3350000381470	-6.0079358984833
1.3500000238419	-6.3142636321254
1.3650000095367	-6.6402165517631
1.3799999952316	-6.9865234006971
1.3949999809265	-7.3539688552419
1.4099999666214	-7.7434067912919
1.4249999523163	-8.1557669737470
1.4400000572205	-8.5920695036767
1.4550000429153	-9.0534455225257
1.4700000286102	-9.5411540543958
1.4850000143051	-10.056608779423
1.5000000000000	-10.601412230983
1.5149999856949	-11.177395581387
1.5299999713898	-11.786674901901
1.5449999570847	-12.431709837409
1.5599999427795	-13.115395972994
1.5750000476837	-13.841180263319
1.5900000333786	-14.613204462278
1.6050000190735	-15.436517420873
1.6200000047684	-16.317353494167
1.6349999904633	-17.263536171960
1.6499999761581	-18.285058897526
1.6649999618530	-19.394950361307
1.6799999475479	-20.610622629995
1.6950000524521	-21.956033495659
1.7100000381470	-23.465346830143
1.7250000238419	-25.189516778522
1.7400000095367	-27.208964299532
1.7549999952316	-29.660265312846
1.7699999809265	-32.797289477519
1.7849999666214	-37.121660205897
1.7999999523163	-42.820811003965
1.8150000572205	-41.726292078597
1.8300000429153	-36.785919336116
1.8450000286102	-33.435243512680
1.8600000143051	-31.103128962836
1.8750000000000	-29.367859630858
1.8899999856949	-28.014916955849
1.9049999713898	-26.925509745092
1.9199999570847	-26.027812584616
1.9349999427795	-25.275268932016
1.9500000476837	-24.636028202044
1.9650000333786	-24.087361456772
1.9800000190735	-23.612506927284
1.9950000047684	-23.198778282544
2.0099999904633	-22.836385564691
2.0250000953674	-22.517659986989
2.0399999618530	-22.236531590845
2.0550000667572	-21.988164414799
2.0699999332428	-21.768688152423
2.0850000381470	-21.575000433736
2.0999999046326	-21.404608061812
2.1150000095367	-21.255500510534
2.1300001144409	-21.126043900396
2.1449999809265	-21.014882044460
2.1600000858307	-20.920856943989
2.1749999523163	-20.842920361016
2.1900000572205	-20.780060821907
2.2049999237061	-20.731221818430
2.2200000286102	-20.695226731231
2.2349998950958	-20.670694149149
2.2500000000000	-20.655958399756
2.2650001049042	-20.648983670679
2.2799999713898	-20.647292205357
2.2950000762939	-20.647884560055
2.3099999427795	-20.647196723948
2.3250000476837	-20.641082857453
2.3399999141693	-20.624852028698
2.3550000190735	-20.593368165355
2.3699998855591	-20.541252760506
2.3849999904633	-20.463155524563
2.4000000953674	-20.354132313488
2.4149999618530	-20.210039119241
2.4300000667572	-20.027932956903
2.4449999332428	-19.806377001393
2.4600000381470	-19.545602330357
2.4749999046326	-19.247481491437
2.4900000095367	-18.915326677385
2.5050001144409	-18.553547802524
2.5199999809265	-18.167267370664
2.5350000858307	-17.761896738326
2.5499999523163	-17.342802865747
2.5650000572205	-16.915041801836
2.5799999237061	-16.483193797493
2.5950000286102	-16.051259419429
2.6099998950958	-15.622648794014
2.6250000000000	-15.200185031721
2.6400001049042	-14.786165972525
2.6549999713898	-14.382411297850
2.6700000762939	-13.990331479645
2.6849999427795	-13.610988289529
2.7000000476837	-13.245159432036
2.7149999141693	-12.893379899275
2.7300000190735	-12.555992913351
2.7449998855591	-12.233185755234
2.7599999904633	-11.925019060714
2.7750000953674	-11.631453227999
2.7899999618530	-11.352371060862
2.8050000667572	-11.087591848796
2.8199999332428	-10.836885624748
2.8350000381470	-10.599988365732
2.8499999046326	-10.376604327749
2.8650000095367	-10.166419773031
2.8800001144409	-9.9691032791126
2.8949999809265	-9.7843104262766
2.9100000858307	-9.6116958806405
2.9249999523163	-9.4509034402456
2.9400000572205	-9.3015775438564
2.9549999237061	-9.1633650334042
2.9700000286102	-9.0359083206191
2.9849998950958	-8.9188543397525
3.0000000000000	-8.8118580135946
3.0150001049042	-8.7145729173088
3.0299999713898	-8.6266605345073
3.0450000762939	-8.5477845259097
3.0599999427795	-8.4776195920064
3.0750000476837	-8.4158419583715
3.0899999141693	-8.3621402413926
3.1050000190735	-8.3162084974683
3.1199998855591	-8.2777485374727
3.1349999904633	-8.2464722291478
3.1500000953674	-8.2221021899565
3.1649999618530	-8.2043719420688
3.1800000667572	-8.1930233095727
3.1949999332428	-8.1878149292907
3.2100000381470	-8.1885184043577
3.2249999046326	-8.1949150749820
3.2400000095367	-8.2068082072954
3.2550001144409	-8.2240130221929
3.2699999809265	-8.2463612096471
3.2850000858307	-8.2737059337356
3.2999999523163	-8.3059154590627
3.3150000572205	-8.3428810918702
3.3299999237061	-8.3845082673293
3.3450000286102	-8.4307283600552
3.3599998950958	-8.4814899431692
3.3750000000000	-8.5367613223254
3.3900001049042	-8.5965321766800
3.4049999713898	-8.6608120654016
3.4200000762939	-8.7296297830111
3.4349999427795	-8.8030301296144
3.4500000476837	-8.8810809378263
3.4649999141693	-8.9638587225191
3.4800000190735	-9.0514629382337
3.4949998855591	-9.1440046200261
3.5099999904633	-9.2416052635136
3.5250000953674	-9.3444027618548
3.5399999618530	-9.4525387269830
3.5550000667572	-9.5661708656302
3.5699999332428	-9.6854577138879
3.5850000381470	-9.8105691687370
3.5999999046326	-9.9416769624136
3.6150000095367	-10.078956627735
3.6300001144409	-10.222589416014
3.6449999809265	-10.372755377738
3.6600000858307	-10.529639358583
3.6749999523163	-10.693425073345
3.6900000572205	-10.864299069715
3.7049999237061	-11.042454039374
3.7200000286102	-11.228076826837
3.7349998950958	-11.421366108710
3.7500000000000	-11.622523180077
3.7650001049042	-11.831755487946
3.7799999713898	-12.049284767603
3.7950000762939	-12.275343030674
3.8099999427795	-12.510185147487
3.8250000476837	-12.754084558686
3.8399999141693	-13.007346350961
3.8550000190735	-13.270310689668
3.8699998855591	-13.543365765340
3.8849999904633	-13.826946863637
3.9000000953674	-14.121558158574
3.9149999618530	-14.427781651237
3.9300000667572	-14.746293741162
3.9449999332428	-15.077875746855
3.9600000381470	-15.423441750780
3.9749999046326	-15.784062516650
3.9900000095367	-16.160991098737
4.0050001144409	-16.555700291619
4.0199999809265	-16.969918794322
4.0349998474121	-17.405692809815
4.0500001907349	-17.865446641507
4.0650000572205	-18.352063104722
4.0799999237061	-18.868999186903
4.0949997901917	-19.420423415571
4.1100001335144	-20.011407952789
4.1250000000000	-20.648197058364
4.1399998664856	-21.338579344653
4.1550002098083	-22.092424278517
4.1700000762939	-22.922494305945
4.1849999427795	-23.845681881924
4.1999998092651	-24.885019037932
4.2150001525879	-26.073076495960
4.2300000190735	-27.458109722514
4.2449998855591	-29.116095290425
4.2600002288818	-31.177095640202
4.2750000953674	-33.892207988060
4.2899999618530	-37.847352011890
4.3049998283386	-44.892832910964
4.3200001716614	-48.450901721735
4.3350000381470	-39.553411585180
4.3499999046326	-34.912568754385
4.3649997711182	-31.871783547299
4.3800001144409	-29.617997082695
4.3949999809265	-27.831097275962
4.4099998474121	-26.353731185560
4.4250001907349	-25.097176930854
4.4400000572205	-24.006569266180
4.4549999237061	-23.045645564151
4.4699997901917	-22.189206182122
4.4850001335144	-21.419038047846
4.5000000000000	-20.721547834412
4.5149998664856	-20.086324104968
4.5300002098083	-19.505213008479
4.5450000762939	-18.971698945869
4.5599999427795	-18.480492545430
4.5749998092651	-18.027232692557
4.5900001525879	-17.608269991060
4.6050000190735	-17.220511512378
4.6199998855591	-16.861311732577
4.6350002288818	-16.528369577540
4.6500000953674	-16.219671120457
4.6649999618530	-15.933423594343
4.6799998283386	-15.668029525338
4.6950001716614	-15.422036178222
4.7100000381470	-15.194112749085
4.7249999046326	-14.983035672772
4.7399997711182	-14.787654883440
4.7550001144409	-14.606892473160
4.7699999809265	-14.439720893415
4.7849998474121	-14.285159105095
4.8000001907349	-14.142255125361
4.8150000572205	-14.010087278683
4.8299999237061	-13.887753096565
4.8449997901917	-13.774369327190
4.8600001335144	-13.669066282030
4.8750000000000	-13.570984697784
4.8899998664856	-13.479276562510
4.9050002098083	-13.393108075260
4.9200000762939	-13.311655336642
4.9349999427795	-13.234112628307
4.9499998092651	-13.159689354110
4.9650001525879	-13.087617510198
4.9800000190735	-13.017157167403
4.9949998855591	-12.947601713098
5.0100002288818	-12.878274266221
5.0250000953674	-12.808545596796
5.0399999618530	-12.737831733122
5.0549998283386	-12.665596429305
5.0700001716614	-12.591360324154
5.0850000381470	-12.514698049342
5.0999999046326	-12.435246632569
5.1149997711182	-12.352700065262
5.1300001144409	-12.266808962606
5.1449999809265	-12.177382173703
5.1599998474121	-12.084281053284
5.1750001907349	-11.987416933518
5.1900000572205	-11.886742697777
5.2049999237061	-11.782253641933
5.2199997901917	-11.673979131617
5.2350001335144	-11.561975436631
5.2500000000000	-11.446320028234
5.2649998664856	-11.327108803658
5.2800002098083	-11.204449616704
5.2950000762939	-11.078462259204
5.3099999427795	-10.949270994882
5.3249998092651	-10.816998077090
5.3400001525879	-10.681777386966
5.3550000190735	-10.543736042842
5.3699998855591	-10.403006498935
5.3850002288818	-10.259716726985
5.4000000953674	-10.114001157279
5.4149999618530	-9.9659949598019
5.4299998283386	-9.8158397693392
5.4450001716614	-9.6636812576619
5.4600000381470	-9.5096710742445
5.4749999046326	-9.3539724000035
5.4899997711182	-9.1967518238945
5.5050001144409	-9.0381925522765
5.5199999809265	-8.8784859624687
5.5349998474121	-8.7178284396375
5.5500001907349	-8.5564347765503
5.5650000572205	-8.3945202726323
5.5799999237061	-8.2323145605505
5.5949997901917	-8.0700494876888
5.6100001335144	-7.9079643679188
5.6250000000000	-7.7462987058264
5.6399998664856	-7.5852951518166
5.6550002098083	-7.4251913819423
5.6700000762939	-7.2662263547381
5.6849999427795	-7.1086294622493
5.6999998092651	-6.9526249402329
5.7150001525879	-6.7984272026921
5.7300000190735	-6.6462382197167
5.7449998855591	-6.4962522152043
5.7600002288818	-6.3486433823811
5.7750000953674	-6.2035752506568
5.7899999618530	-6.0611959067210
5.8049998283386	-5.9216355972632
5.8200001716614	-5.7850092895254
5.8350000381470	-5.6514116693963
5.8499999046326	-5.5209284403537
5.8649997711182	-5.3936193807944
5.8800001144409	-5.2695341767782
5.8949999809265	-5.1487036450524
5.9099998474121	-5.0311437800346
5.9250001907349	-4.9168549021635
5.9400000572205	-4.8058260663195
5.9549999237061	-4.6980291124621
5.9699997901917	-4.5934251159766
5.9850001335144	-4.4919659306612
6.0000000000000	-4.3935906338919
6.0149998664856	-4.2982269347163
6.0300002098083	-4.2057996242607
6.0450000762939	-4.1162228070962
6.0599999427795	-4.0294070870164
6.0749998092651	-3.9452534993130
6.0900001525879	-3.8636640135249
6.1050000190735	-3.7845389503210
6.1199998855591	-3.7077730032349
6.1350002288818	-3.6332649578993
6.1500000953674	-3.5609113531196
6.1649999618530	-3.4906145051727
6.1799998283386	-3.4222757779283
6.1950001716614	-3.3558027480263
6.2100000381470	-3.2911092916886
6.2249999046326	-3.2281103072654
6.2399997711182	-3.1667320297290
6.2550001144409	-3.1069056780952
6.2699999809265	-3.0485656747512
6.2849998474121	-2.9916604123264
6.3000001907349	-2.9361411636195
6.3150000572205	-2.8819704227073
6.3299999237061	-2.8291138308015
6.3449997901917	-2.7775485611670
6.3600001335144	-2.7272559995262
6.3750000000000	-2.6782260996877
6.3899998664856	-2.6304514959916
6.4050002098083	-2.5839329874888
6.4200000762939	-2.5386773687995
6.4349999427795	-2.4946913919858
6.4499998092651	-2.4519836808948
6.4650001525879	-2.4105724254236
6.4800000190735	-2.3704675220814
6.4949998855591	-2.3316874959456
6.5100002288818	-2.2942444141660
6.5250000953674	-2.2581506966825
6.5399999618530	-2.2234167327694
6.5549998283386	-2.1900503095620
6.5700001716614	-2.1580548186731
6.5850000381470	-2.1274299691032
6.5999999046326	-2.0981663611227
6.6149997711182	-2.0702593831119
6.6300001144409	-2.0436858368109
6.6449999809265	-2.0184254464294
6.6599998474121	-1.9944501200967
6.6750001907349	-1.9717240199973
6.6900000572205	-1.9502055902317
6.7049999237061	-1.9298462620648
6.7199997901917	-1.9105986204399
6.7350001335144	-1.8923999888203
6.7500000000000	-1.8751911345046
6.7649998664856	-1.8589034047495
6.7800002098083	-1.8434690996961
6.7950000762939	-1.8288145301353
6.8099999427795	-1.8148670119041
6.8249998092651	-1.8015522456169
6.8400001525879	-1.7887945749941
6.8550000190735	-1.7765229647520
6.8699998855591	-1.7646644652999
6.8850002288818	-1.7531513997743
6.9000000953674	-1.7419208918727
6.9149999618530	-1.7309122666851
6.9299998283386	-1.7200736887982
6.9450001716614	-1.7093575554251
6.9600000381470	-1.6987234725517
6.9749999046326	-1.6881379575466
6.9899997711182	-1.6775782027997
7.0050001144409	-1.6670273302542
7.0199999809265	-1.6564732326299
7.0349998474121	-1.6459194699738
7.0500001907349	-1.6353695676413
7.0650000572205	-1.6248378591458
7.0799999237061	-1.6143463506119
7.0949997901917	-1.6039213726120
7.1100001335144	-1.5935947950754
7.1250000000000	-1.5834042098932
7.1399998664856	-1.5733890011004
7.1550002098083	-1.5635947724266
7.1700000762939	-1.5540621598301
7.1849999427795	-1.5448390557316
7.1999998092651	-1.5359703426483
7.2150001525879	-1.5274985238262
7.2300000190735	-1.5194629673122
7.2449998855591	-1.5119034192674
7.2600002288818	-1.5048514002373
7.2750000953674	-1.4983361918359
7.2899999618530	-1.4923784218019
7.3049998283386	-1.4869974497915
7.3200001716614	-1.4822015767568
7.3350000381470	-1.4779916703648
7.3499999046326	-1.4743669858660
7.3649997711182	-1.4713127608000
7.3800001144409	-1.4688112120411
7.3949999809265	-1.4668379772255
7.4099998474121	-1.4653596639106
7.4250001907349	-1.4643400709510
7.4400000572205	-1.4637339665296
7.4549999237061	-1.4634943928713
7.4699997901917	-1.4635689200276
7.4850001335144	-1.4639031127002
7.5000000000000	-1.4644401086548
7.5149998664856	-1.4651203007416
7.5300002098083	-1.4658878666078
7.5450000762939	-1.4666852198370
7.5599999427795	-1.4674578892948
7.5749998092651	-1.4681526063942
7.5900001525879	-1.4687227548757
7.6050000190735	-1.4691284118239
7.6199998855591	-1.4693296194156
7.6350002288818	-1.4692971997743
7.6500000953674	-1.4690095688178
7.6649999618530	-1.4684484664327
7.6799998283386	-1.4676069472107
7.6950001716614	-1.4664861974017
7.7100000381470	-1.4650908301735
7.7249999046326	-1.4634367717451
7.7399997711182	-1.4615460583893
7.7550001144409	-1.4594457967971
7.7699999809265	-1.4571710626107
7.7849998474121	-1.4547637020506
7.8000001907349	-1.4522635232335
7.8150000572205	-1.4497185656734
7.8299999237061	-1.4471790184168
7.8449997901917	-1.4446940373361
7.8600001335144	-1.4423140011046
7.8750000000000	-1.4400903964811
7.8899998664856	-1.4380686182859
7.9050002098083	-1.4362940102008
7.9200000762939	-1.4348071059133
7.9349999427795	-1.4336435130639
7.9499998092651	-1.4328344955444
7.9650001525879	-1.4324025175920
7.9800000190735	-1.4323665346401
7.9949998855591	-1.4327375987038
8.0100002288818	-1.4335155323544
8.0249996185303	-1.4346992235355
8.0399999618530	-1.4362749557734
8.0550003051758	-1.4382230724543
8.0699996948242	-1.4405185234398
8.0850000381470	-1.4431287700494
8.1000003814697	-1.4460135620645
8.1149997711182	-1.4491306462101
8.1300001144409	-1.4524297272068
8.1450004577637	-1.4558627828289
8.1599998474121	-1.4593719119038
8.1750001907349	-1.4629045291332
8.1899995803833	-1.4664015796965
8.2049999237061	-1.4698100835367
8.2200002670288	-1.4730763943100
8.2349996566772	-1.4761503409511
8.2500000000000	-1.4789847879233
8.2650003433228	-1.4815398575332
8.2799997329712	-1.4837782187650
8.2950000762939	-1.4856735829601
8.3100004196167	-1.4872012376527
8.3249998092651	-1.4883490223767
8.3400001525879	-1.4891090231022
8.3549995422363	-1.4894847809090
8.3699998855591	-1.4894840698224
8.3850002288818	-1.4891244649835
8.3999996185303	-1.4884315130189
8.4149999618530	-1.4874368925783
8.4300003051758	-1.4861770622748
8.4449996948242	-1.4846968358070
8.4600000381470	-1.4830432106694
8.4750003814697	-1.4812669008461
8.4899997711182	-1.4794208299818
8.5050001144409	-1.4775604585935
8.5200004577637	-1.4757395740944
8.5349998474121	-1.4740138542308
8.5500001907349	-1.4724338739470
8.5649995803833	-1.4710464688885
8.5799999237061	-1.4698984417233
8.5950002670288	-1.4690255764591
8.6099996566772	-1.4684633564861
8.6250000000000	-1.4682363496617
