#Parameters = {er=69.7; tanD=0.2; PHANUP=14; a=0.95; b=0.5; c=1; d=1; gl=0; gw=30; l=8.5; l1=11; l2=13; mt=0.018; r=14; s=2; sf=1; sf1=1; sgl=2; sgw=2; sl=53; sl1=60; slotl=-2; slotw=1; sls=0; stripl=15; stripw=0.5; sw=30; t=0.13; w=1}
#"Frequency / GHz"	"S1,1 (1) [Magnitude]"
#----------------------------------------
0.0000000000000	-18.651329661969
0.014999999664724	-18.605488005540
0.029999999329448	-18.470431976251
0.045000001788139	-18.253191472981
0.059999998658895	-17.964338956071
0.075000002980232	-17.616624843641
0.090000003576279	-17.223624175112
0.10499999672174	-16.798635937393
0.11999999731779	-16.353909111491
0.13500000536442	-15.900225258217
0.15000000596046	-15.446728965732
0.16500000655651	-15.000938840153
0.18000000715256	-14.568845622324
0.19499999284744	-14.155060352277
0.20999999344349	-13.762963277472
0.22499999403954	-13.394840758610
0.23999999463558	-13.051997810594
0.25499999523163	-12.734846502976
0.27000001072884	-12.442963810652
0.28499999642372	-12.175133151227
0.30000001192093	-11.929358871801
0.31499999761581	-11.702883810921
0.33000001311302	-11.492205740784
0.34499999880791	-11.293105084527
0.36000001430511	-11.100725452000
0.37500000000000	-10.909699754011
0.38999998569489	-10.714359519000
0.40500000119209	-10.509026729939
0.41999998688698	-10.288386418409
0.43500000238419	-10.047905853155
0.44999998807907	-9.7842467020150
0.46500000357628	-9.4955893013176
0.47999998927116	-9.1818277657745
0.49500000476837	-8.8445676448857
0.50999999046326	-8.4869375772643
0.52499997615814	-8.1132599890736
0.54000002145767	-7.7286373015677
0.55500000715256	-7.3385232405347
0.56999999284744	-6.9483618915362
0.58499997854233	-6.5632855685670
0.60000002384186	-6.1879270451009
0.61500000953674	-5.8263067342675
0.62999999523163	-5.4817953203292
0.64499998092651	-5.1571267529176
0.66000002622604	-4.8544400468184
0.67500001192093	-4.5753450629777
0.68999999761581	-4.3209914006054
0.70499998331070	-4.0921348221961
0.72000002861023	-3.8892097934298
0.73500001430511	-3.7123864492145
0.75000000000000	-3.5616150687448
0.76499998569489	-3.4366701584182
0.77999997138977	-3.3371795626183
0.79500001668930	-3.2626496292725
0.81000000238419	-3.2124634351533
0.82499998807907	-3.1858963134062
0.83999997377396	-3.1820926866672
0.85500001907349	-3.2000559927984
0.87000000476837	-3.2386164751898
0.88499999046326	-3.2963980867497
0.89999997615814	-3.3717713297635
0.91500002145767	-3.4628117555855
0.93000000715256	-3.5672524259682
0.94499999284744	-3.6824472257196
0.95999997854233	-3.8053485679120
0.97500002384186	-3.9325072503483
0.99000000953674	-4.0601182480555
1.0049999952316	-4.1841086722139
1.0199999809265	-4.3002810957153
1.0349999666214	-4.4045202816087
1.0499999523163	-4.4930437406940
1.0650000572205	-4.5626614523906
1.0800000429153	-4.6110382535047
1.0950000286102	-4.6368958085185
1.1100000143051	-4.6401173993410
1.1250000000000	-4.6217489300371
1.1399999856949	-4.5838862626569
1.1549999713898	-4.5294762120223
1.1699999570847	-4.4620585865376
1.1849999427795	-4.3855051662590
1.2000000476837	-4.3037719734186
1.2150000333786	-4.2207076945747
1.2300000190735	-4.1398960758836
1.2450000047684	-4.0645853546983
1.2599999904633	-3.9976233500964
1.2749999761581	-3.9414674238581
1.2899999618530	-3.8981805023415
1.3049999475479	-3.8694722078838
1.3200000524521	-3.8567260505799
1.3350000381470	-3.8610307771537
1.3500000238419	-3.8832237570664
1.3650000095367	-3.9238934124807
1.3799999952316	-3.9834149437408
1.3949999809265	-4.0619506375324
1.4099999666214	-4.1594569631116
1.4249999523163	-4.2756755472856
1.4400000572205	-4.4101312955762
1.4550000429153	-4.5621134526355
1.4700000286102	-4.7306643349848
1.4850000143051	-4.9145637026199
1.5000000000000	-5.1123117496003
1.5149999856949	-5.3221160996973
1.5299999713898	-5.5418941054410
1.5449999570847	-5.7692627604365
1.5599999427795	-6.0015695400751
1.5750000476837	-6.2359053289088
1.5900000333786	-6.4691569587846
1.6050000190735	-6.6980691425341
1.6200000047684	-6.9193162784501
1.6349999904633	-7.1296009810445
1.6499999761581	-7.3257562114969
1.6649999618530	-7.5048523289845
1.6799999475479	-7.6642999731203
1.6950000524521	-7.8019434312576
1.7100000381470	-7.9161268806324
1.7250000238419	-8.0057435967106
1.7400000095367	-8.0702404450477
1.7549999952316	-8.1096102348551
1.7699999809265	-8.1243531017502
1.7849999666214	-8.1154084483984
1.7999999523163	-8.0840932645356
1.8150000572205	-8.0320256775060
1.8300000429153	-7.9610473730716
1.8450000286102	-7.8731527601909
1.8600000143051	-7.7704288313012
1.8750000000000	-7.6549948418582
1.8899999856949	-7.5289529040859
1.9049999713898	-7.3943480078771
1.9199999570847	-7.2531275107883
1.9349999427795	-7.1071182943268
1.9500000476837	-6.9579934158157
1.9650000333786	-6.8072659514589
1.9800000190735	-6.6562706181878
1.9950000047684	-6.5061593716226
2.0099999904633	-6.3579037920529
2.0250000953674	-6.2122969337946
2.0399999618530	-6.0699631676535
2.0550000667572	-5.9313791022272
2.0699999332428	-5.7968802914907
2.0850000381470	-5.6666861387585
2.0999999046326	-5.5409214186637
2.1150000095367	-5.4196357775689
2.1300001144409	-5.3028320120565
2.1449999809265	-5.1904756569149
2.1600000858307	-5.0825314633916
2.1749999523163	-4.9789684254401
2.1900000572205	-4.8797816457940
2.2049999237061	-4.7850046752390
2.2200000286102	-4.6947204465886
2.2349998950958	-4.6090610389513
2.2500000000000	-4.5282171991533
2.2650001049042	-4.4524374680802
2.2799999713898	-4.3820172039475
2.2950000762939	-4.3173002986239
2.3099999427795	-4.2586680620170
2.3250000476837	-4.2065270966598
2.3399999141693	-4.1613000191883
2.3550000190735	-4.1234158205376
2.3699998855591	-4.0932971889626
2.3849999904633	-4.0713497193458
2.4000000953674	-4.0579574483796
2.4149999618530	-4.0534626547430
2.4300000667572	-4.0581697914686
2.4449999332428	-4.0723336804401
2.4600000381470	-4.0961536126312
2.4749999046326	-4.1297686112522
2.4900000095367	-4.1732542105179
2.5050001144409	-4.2266235931208
2.5199999809265	-4.2898221439059
2.5350000858307	-4.3627199640482
2.5499999523163	-4.4451252561395
2.5650000572205	-4.5367797135770
2.5799999237061	-4.6373578446156
2.5950000286102	-4.7464765647979
2.6099998950958	-4.8637027747560
2.6250000000000	-4.9885564599766
2.6400001049042	-5.1205262750071
2.6549999713898	-5.2590795073639
2.6700000762939	-5.4036788504049
2.6849999427795	-5.5537976271917
2.7000000476837	-5.7089314162456
2.7149999141693	-5.8686227568538
2.7300000190735	-6.0324710461786
2.7449998855591	-6.2001490205247
2.7599999904633	-6.3714066507509
2.7750000953674	-6.5460815060936
2.7899999618530	-6.7240965383593
2.8050000667572	-6.9054518561113
2.8199999332428	-7.0902157786977
2.8350000381470	-7.2784975835165
2.8499999046326	-7.4704326178584
2.8650000095367	-7.6661396243593
2.8800001144409	-7.8656953849729
2.8949999809265	-8.0690862986957
2.9100000858307	-8.2761739076848
2.9249999523163	-8.4866551777439
2.9400000572205	-8.7000210436474
2.9549999237061	-8.9155245512605
2.9700000286102	-9.1321582947548
2.9849998950958	-9.3486374527372
3.0000000000000	-9.5634106170908
3.0150001049042	-9.7746737531622
3.0299999713898	-9.9804325961740
3.0450000762939	-10.178563322500
3.0599999427795	-10.366923146502
3.0750000476837	-10.543470965547
3.0899999141693	-10.706402976649
3.1050000190735	-10.854289134065
3.1199998855591	-10.986200475827
3.1349999904633	-11.101788945700
3.1500000953674	-11.201346843747
3.1649999618530	-11.285792419956
3.1800000667572	-11.356617137402
3.1949999332428	-11.415780838965
3.2100000381470	-11.465582815362
3.2249999046326	-11.508511183178
3.2400000095367	-11.547097580783
3.2550001144409	-11.583774052118
3.2699999809265	-11.620755611588
3.2850000858307	-11.659946359036
3.2999999523163	-11.702863859521
3.3150000572205	-11.750585888600
3.3299999237061	-11.803716747820
3.3450000286102	-11.862366844211
3.3599998950958	-11.926147019039
3.3750000000000	-11.994183041779
3.3900001049042	-12.065137586366
3.4049999713898	-12.137261187703
3.4200000762939	-12.208454142315
3.4349999427795	-12.276366283458
3.4500000476837	-12.338513416303
3.4649999141693	-12.392424187388
3.4800000190735	-12.435795966877
3.4949998855591	-12.466661758704
3.5099999904633	-12.483543330856
3.5250000953674	-12.485571446002
3.5399999618530	-12.472560860246
3.5550000667572	-12.445044462347
3.5699999332428	-12.404219538754
3.5850000381470	-12.351872282824
3.5999999046326	-12.290246424642
3.6150000095367	-12.221901790403
3.6300001144409	-12.149562909191
3.6449999809265	-12.075980842508
3.6600000858307	-12.003825792424
3.6749999523163	-11.935592283858
3.6900000572205	-11.873544641915
3.7049999237061	-11.819675470166
3.7200000286102	-11.775699155546
3.7349998950958	-11.743049883735
3.7500000000000	-11.722890897800
3.7650001049042	-11.716142388292
3.7799999713898	-11.723507714359
3.7950000762939	-11.745492983549
3.8099999427795	-11.782449874264
3.8250000476837	-11.834602262417
3.8399999141693	-11.902075930825
3.8550000190735	-11.984927954904
3.8699998855591	-12.083183805076
3.8849999904633	-12.196872571344
3.9000000953674	-12.326044932467
3.9149999618530	-12.470819318271
3.9300000667572	-12.631407400809
3.9449999332428	-12.808149192312
3.9600000381470	-13.001538168332
3.9749999046326	-13.212259221567
3.9900000095367	-13.441211262096
4.0050001144409	-13.689544565003
4.0199999809265	-13.958675777125
4.0349998474121	-14.250325775096
4.0500001907349	-14.566535616375
4.0650000572205	-14.909695268355
4.0799999237061	-15.282561017980
4.0949997901917	-15.688275750060
4.1100001335144	-16.130367879144
4.1250000000000	-16.612732916547
4.1399998664856	-17.139560213987
4.1550002098083	-17.715164438047
4.1700000762939	-18.343616518244
4.1849999427795	-19.028016115042
4.1999998092651	-19.769052235740
4.2150001525879	-20.562321695799
4.2300000190735	-21.393481304286
4.2449998855591	-22.230279363892
4.2600002288818	-23.011821806505
4.2750000953674	-23.640977858766
4.2899999618530	-23.996555435504
4.3049998283386	-23.981715297082
4.3200001716614	-23.584705861206
4.3350000381470	-22.887605214858
4.3499999046326	-22.012083533314
4.3649997711182	-21.063700062351
4.3800001144409	-20.112042340933
4.3949999809265	-19.195587817960
4.4099998474121	-18.332564738518
4.4250001907349	-17.529717871108
4.4400000572205	-16.787794855886
4.4549999237061	-16.104643943968
4.4699997901917	-15.476867606348
4.4850001335144	-14.900677848906
4.5000000000000	-14.372313108982
4.5149998664856	-13.888233635877
4.5300002098083	-13.445199544022
4.5450000762939	-13.040289158383
4.5599999427795	-12.670882004944
4.5749998092651	-12.334645669096
4.5900001525879	-12.029494251012
4.6050000190735	-11.753571281100
4.6199998855591	-11.505207764380
4.6350002288818	-11.282915896715
4.6500000953674	-11.085343888436
4.6649999618530	-10.911280213401
4.6799998283386	-10.759611811184
4.6950001716614	-10.629329580630
4.7100000381470	-10.519499143604
4.7249999046326	-10.429260979745
4.7399997711182	-10.357814387492
4.7550001144409	-10.304413404782
4.7699999809265	-10.268359386668
4.7849998474121	-10.249002073550
4.8000001907349	-10.245737133917
4.8150000572205	-10.258004112569
4.8299999237061	-10.285295623942
4.8449997901917	-10.327164092006
4.8600001335144	-10.383232117261
4.8750000000000	-10.453198439442
4.8899998664856	-10.536865127178
4.9050002098083	-10.634145153175
4.9200000762939	-10.745090532769
4.9349999427795	-10.869904511533
4.9499998092651	-11.008977297038
4.9650001525879	-11.162900002248
4.9800000190735	-11.332493999948
4.9949998855591	-11.518835975705
5.0100002288818	-11.723279777810
5.0250000953674	-11.947481105184
5.0399999618530	-12.193419306083
5.0549998283386	-12.463422105702
5.0700001716614	-12.760176951395
5.0850000381470	-13.086747994041
5.0999999046326	-13.446575352834
5.1149997711182	-13.843451004177
5.1300001144409	-14.281446758426
5.1449999809265	-14.764759880537
5.1599998474121	-15.297375377024
5.1750001907349	-15.882414962478
5.1900000572205	-16.520893216698
5.2049999237061	-17.209404314109
5.2199997901917	-17.936005943473
5.2350001335144	-18.673463153563
5.2500000000000	-19.369889788715
5.2649998664856	-19.940899780729
5.2800002098083	-20.275963975341
5.2950000762939	-20.275136560172
5.3099999427795	-19.905385549521
5.3249998092651	-19.223659406198
5.3400001525879	-18.339133830202
5.3550000190735	-17.358242760947
5.3699998855591	-16.357052178606
5.3850002288818	-15.380551822801
5.4000000953674	-14.451750003187
5.4149999618530	-13.580456437815
5.4299998283386	-12.769256276623
5.4450001716614	-12.017022677449
5.4600000381470	-11.320880874906
5.4749999046326	-10.677231308765
5.4899997711182	-10.082296485988
5.5050001144409	-9.5323695571560
5.5199999809265	-9.0239411173044
5.5349998474121	-8.5537463527125
5.5500001907349	-8.1187595730583
5.5650000572205	-7.7161909667683
5.5799999237061	-7.3434718802911
5.5949997901917	-6.9982198146332
5.6100001335144	-6.6782400135503
5.6250000000000	-6.3814864274384
5.6399998664856	-6.1060697653292
5.6550002098083	-5.8502229683958
5.6700000762939	-5.6123134359340
5.6849999427795	-5.3908231152110
5.6999998092651	-5.1843482932664
5.7150001525879	-4.9915922392811
5.7300000190735	-4.8113672381958
5.7449998855591	-4.6425911931460
5.7600002288818	-4.4842844406600
5.7750000953674	-4.3355670138173
5.7899999618530	-4.1956594559128
5.8049998283386	-4.0638748979119
5.8200001716614	-3.9396178414374
5.8350000381470	-3.8223724917288
5.8499999046326	-3.7117053423012
5.8649997711182	-3.6072480834047
5.8800001144409	-3.5086943728840
5.8949999809265	-3.4157863048145
5.9099998474121	-3.3283069856059
5.9250001907349	-3.2460679626187
5.9400000572205	-3.1689029079806
5.9549999237061	-3.0966516853640
5.9699997901917	-3.0291579068563
5.9850001335144	-2.9662541589258
6.0000000000000	-2.9077655674411
6.0149998664856	-2.8534892776089
6.0300002098083	-2.8032082101558
6.0450000762939	-2.7566766095982
6.0599999427795	-2.7136220311909
6.0749998092651	-2.6737539016070
6.0900001525879	-2.6367559923727
6.1050000190735	-2.6023018679139
6.1199998855591	-2.5700504768771
6.1350002288818	-2.5396638032247
6.1500000953674	-2.5108064057674
6.1649999618530	-2.4831570553513
6.1799998283386	-2.4564189551725
6.1950001716614	-2.4303243138574
6.2100000381470	-2.4046421522552
6.2249999046326	-2.3791857404517
6.2399997711182	-2.3538116367155
6.2550001144409	-2.3284302416946
6.2699999809265	-2.3029948324300
6.2849998474121	-2.2775109533708
6.3000001907349	-2.2520203425544
6.3150000572205	-2.2266052942273
6.3299999237061	-2.2013745602262
6.3449997901917	-2.1764600163997
6.3600001335144	-2.1519995914537
6.3750000000000	-2.1281381461346
6.3899998664856	-2.1050126892832
6.4050002098083	-2.0827433675191
6.4200000762939	-2.0614296265297
6.4349999427795	-2.0411439118776
6.4499998092651	-2.0219233510711
6.4650001525879	-2.0037724240452
6.4800000190735	-1.9866617479709
6.4949998855591	-1.9705252297694
6.5100002288818	-1.9552696892120
6.5250000953674	-1.9407723191890
6.5399999618530	-1.9268912058062
6.5549998283386	-1.9134722051871
6.5700001716614	-1.9003557637989
6.5850000381470	-1.8873841962968
6.5999999046326	-1.8744118519389
6.6149997711182	-1.8613129545389
6.6300001144409	-1.8479848993631
6.6449999809265	-1.8343560906749
6.6599998474121	-1.8203932758744
6.6750001907349	-1.8060975019888
6.6900000572205	-1.7915034199956
6.7049999237061	-1.7766868886943
6.7199997901917	-1.7617495229766
6.7350001335144	-1.7468234141707
6.7500000000000	-1.7320553389499
6.7649998664856	-1.7176056807687
6.7800002098083	-1.7036373350009
6.7950000762939	-1.6903104040824
6.8099999427795	-1.6777686747842
6.8249998092651	-1.6661357845044
6.8400001525879	-1.6555121386935
6.8550000190735	-1.6459622374373
6.8699998855591	-1.6375155311728
6.8850002288818	-1.6301672293721
6.9000000953674	-1.6238700268558
6.9149999618530	-1.6185440970347
6.9299998283386	-1.6140771347523
6.9450001716614	-1.6103265934238
6.9600000381470	-1.6071311085981
6.9749999046326	-1.6043126186600
6.9899997711182	-1.6016906187126
7.0050001144409	-1.5990852234396
7.0199999809265	-1.5963302121438
7.0349998474121	-1.5932755425979
7.0500001907349	-1.5898007389314
7.0650000572205	-1.5858179227241
7.0799999237061	-1.5812742031940
7.0949997901917	-1.5761581062943
7.1100001335144	-1.5704957694997
7.1250000000000	-1.5643512785798
7.1399998664856	-1.5578238073603
7.1550002098083	-1.5510398372600
7.1700000762939	-1.5441486647347
7.1849999427795	-1.5373109848114
7.1999998092651	-1.5306964322532
7.2150001525879	-1.5244666776275
7.2300000190735	-1.5187765351421
7.2449998855591	-1.5137550111773
7.2600002288818	-1.5095109704715
7.2750000953674	-1.5061182554782
7.2899999618530	-1.5036130744754
7.3049998283386	-1.5019993456157
7.3200001716614	-1.5012373844142
7.3350000381470	-1.5012517765583
7.3499999046326	-1.5019371825938
7.3649997711182	-1.5031605759677
7.3800001144409	-1.5047609720838
7.3949999809265	-1.5065694473870
7.4099998474121	-1.5084105911094
7.4250001907349	-1.5101104092224
7.4400000572205	-1.5115113117574
7.4549999237061	-1.5124715020531
7.4699997901917	-1.5128786367339
7.4850001335144	-1.5126575160553
7.5000000000000	-1.5117638562094
7.5149998664856	-1.5102005199001
7.5300002098083	-1.5080056696769
7.5450000762939	-1.5052583252773
7.5599999427795	-1.5020703811209
7.5749998092651	-1.4985833730710
7.5900001525879	-1.4949602255565
7.6050000190735	-1.4913744025827
7.6199998855591	-1.4880060857119
7.6350002288818	-1.4850302026613
7.6500000953674	-1.4826091609988
7.6649999618530	-1.4808817015497
7.6799998283386	-1.4799624845453
7.6950001716614	-1.4799249545238
7.7100000381470	-1.4808149257199
7.7249999046326	-1.4826294168464
7.7399997711182	-1.4853340473920
7.7550001144409	-1.4888486227872
7.7699999809265	-1.4930643817951
7.7849998474121	-1.4978410490361
7.8000001907349	-1.5030147459475
7.8150000572205	-1.5084130193221
7.8299999237061	-1.5138520914132
7.8449997901917	-1.5191545897426
7.8600001335144	-1.5241581665088
7.8750000000000	-1.5287154016289
7.8899998664856	-1.5327163013541
7.9050002098083	-1.5360785251691
7.9200000762939	-1.5387638433929
7.9349999427795	-1.5407726216882
7.9499998092651	-1.5421478809182
7.9650001525879	-1.5429705558973
7.9800000190735	-1.5433588049192
7.9949998855591	-1.5434554334499
8.0100002288818	-1.5434306283133
8.0249996185303	-1.5434622250269
8.0399999618530	-1.5437352830174
8.0550003051758	-1.5444278572273
8.0699996948242	-1.5457010928264
8.0850000381470	-1.5477001831168
8.1000003814697	-1.5505326180016
8.1149997711182	-1.5542759302535
8.1300001144409	-1.5589678250312
8.1450004577637	-1.5646021473990
8.1599998474121	-1.5711334536146
8.1750001907349	-1.5784750276872
8.1899995803833	-1.5865074656842
8.2049999237061	-1.5950789782413
8.2200002670288	-1.6040177906465
8.2349996566772	-1.6131365967719
8.2500000000000	-1.6222430204005
8.2650003433228	-1.6311503827778
8.2799997329712	-1.6396848898649
8.2950000762939	-1.6476968932469
8.3100004196167	-1.6550684569438
8.3249998092651	-1.6617163678186
8.3400001525879	-1.6676008926648
8.3549995422363	-1.6727238555491
8.3699998855591	-1.6771339809957
8.3850002288818	-1.6809175601716
8.3999996185303	-1.6841981572055
8.4149999618530	-1.6871312932528
8.4300003051758	-1.6898930948659
8.4449996948242	-1.6926721217793
8.4600000381470	-1.6956637534752
8.4750003814697	-1.6990526047087
8.4899997711182	-1.7030135754417
8.5050001144409	-1.7076927774265
8.5200004577637	-1.7132032530626
8.5349998474121	-1.7196251293883
8.5500001907349	-1.7269965049983
8.5649995803833	-1.7353083617543
8.5799999237061	-1.7445121086367
8.5950002670288	-1.7545161459849
8.6099996566772	-1.7651911917085
8.6250000000000	-1.7763774423572
