#Parameters = {er=9.21538194; tanD=0.514294894; PHANUP=14; a=0.95; b=0.5; c=1; d=1; gl=0; gw=30; l=8.5; l1=11; l2=13; mt=0.018; r=14; s=2; sf=1; sf1=1; sgl=2; sgw=2; sl=53; sl1=60; slotl=-2; slotw=1; sls=0; stripl=15; stripw=0.5; sw=30; t=0.13; w=1}
#"Frequency / GHz"	"S1,1 (30) [Magnitude]"
#-----------------------------------------
0.0000000000000	-35.149637502960
0.014999999664724	-34.678357991131
0.029999999329448	-33.519714760383
0.045000001788139	-32.110296803818
0.059999998658895	-30.718453621117
0.075000002980232	-29.446318538738
0.090000003576279	-28.316568709846
0.10499999672174	-27.322833314508
0.11999999731779	-26.450222829150
0.13500000536442	-25.682574430726
0.15000000596046	-25.004695473852
0.16500000655651	-24.402779291616
0.18000000715256	-23.864225148920
0.19499999284744	-23.377290240515
0.20999999344349	-22.930777142090
0.22499999403954	-22.513770497997
0.23999999463558	-22.115534404363
0.25499999523163	-21.725535537264
0.27000001072884	-21.333648065511
0.28499999642372	-20.930507073671
0.30000001192093	-20.508001769245
0.31499999761581	-20.059772163583
0.33000001311302	-19.581656175754
0.34499999880791	-19.071926664679
0.36000001430511	-18.531273448977
0.37500000000000	-17.962500382699
0.38999998569489	-17.370043137362
0.40500000119209	-16.759359849064
0.41999998688698	-16.136356518915
0.43500000238419	-15.506901379786
0.44999998807907	-14.876465438795
0.46500000357628	-14.249907225314
0.47999998927116	-13.631385316315
0.49500000476837	-13.024329187954
0.50999999046326	-12.431493426640
0.52499997615814	-11.855022135508
0.54000002145767	-11.296538921045
0.55500000715256	-10.757226613360
0.56999999284744	-10.237903675164
0.58499997854233	-9.7391030297007
0.60000002384186	-9.2611198958982
0.61500000953674	-8.8040606014475
0.62999999523163	-8.3678925741697
0.64499998092651	-7.9524639465935
0.66000002622604	-7.5575415313225
0.67500001192093	-7.1828193310691
0.68999999761581	-6.8279453063603
0.70499998331070	-6.4925278271569
0.72000002861023	-6.1761507578047
0.73500001430511	-5.8783798934217
0.75000000000000	-5.5987739687473
0.76499998569489	-5.3368844027062
0.77999997138977	-5.0922634136241
0.79500001668930	-4.8644721275522
0.81000000238419	-4.6530795857437
0.82499998807907	-4.4576679868989
0.83999997377396	-4.2778340892991
0.85500001907349	-4.1131931187132
0.87000000476837	-3.9633826158705
0.88499999046326	-3.8280621628773
0.89999997615814	-3.7069140182082
0.91500002145767	-3.5996497261632
0.93000000715256	-3.5060063538539
0.94499999284744	-3.4257474863175
0.95999997854233	-3.3586700362947
0.97500002384186	-3.3046015742119
0.99000000953674	-3.2633955815231
1.0049999952316	-3.2349432794522
1.0199999809265	-3.2191659855925
1.0349999666214	-3.2160157899893
1.0499999523163	-3.2254801901018
1.0650000572205	-3.2475769119402
1.0800000429153	-3.2823567208846
1.0950000286102	-3.3299068082071
1.1100000143051	-3.3903419082662
1.1250000000000	-3.4638119462883
1.1399999856949	-3.5504978297479
1.1549999713898	-3.6506099864532
1.1699999570847	-3.7643968140814
1.1849999427795	-3.8921302096078
1.2000000476837	-4.0341200348101
1.2150000333786	-4.1906965813006
1.2300000190735	-4.3622329146010
1.2450000047684	-4.5491222908638
1.2599999904633	-4.7517945482938
1.2749999761581	-4.9707078670661
1.2899999618530	-5.2063540734171
1.3049999475479	-5.4592565218091
1.3200000524521	-5.7299776316925
1.3350000381470	-6.0191115529941
1.3500000238419	-6.3272982518097
1.3650000095367	-6.6552205962839
1.3799999952316	-7.0036137624298
1.3949999809265	-7.3732696953920
1.4099999666214	-7.7650511790780
1.4249999523163	-8.1798943854224
1.4400000572205	-8.6188295506035
1.4550000429153	-9.0829976152715
1.4700000286102	-9.5736652090078
1.4850000143051	-10.092261907438
1.5000000000000	-10.640401847015
1.5149999856949	-11.219931081686
1.5299999713898	-11.832980191986
1.5449999570847	-12.482029064624
1.5599999427795	-13.169990902220
1.5750000476837	-13.900336614023
1.5900000333786	-14.677230622651
1.6050000190735	-15.505747223646
1.6200000047684	-16.392149404638
1.6349999904633	-17.344284790254
1.6499999761581	-18.372165864239
1.6649999618530	-19.488830052144
1.6799999475479	-20.711655406122
1.6950000524521	-22.064488523163
1.7100000381470	-23.581182134254
1.7250000238419	-25.311867702062
1.7400000095367	-27.334721318413
1.7549999952316	-29.779449571624
1.7699999809265	-32.874522417198
1.7849999666214	-36.996291822911
1.7999999523163	-41.691356837110
1.8150000572205	-40.581648772140
1.8300000429153	-36.389766866662
1.8450000286102	-33.294750139205
1.8600000143051	-31.074656800805
1.8750000000000	-29.402467471844
1.8899999856949	-28.091738504151
1.9049999713898	-27.034167857215
1.9199999570847	-26.162571640951
1.9349999427795	-25.432699494643
1.9500000476837	-24.813943959143
1.9650000333786	-24.284279303356
1.9800000190735	-23.827353825909
1.9950000047684	-23.430717690008
2.0099999904633	-23.084708796334
2.0250000953674	-22.781718041699
2.0399999618530	-22.515691623870
2.0550000667572	-22.281773867595
2.0699999332428	-22.076057786172
2.0850000381470	-21.895385787630
2.0999999046326	-21.737194302076
2.1150000095367	-21.599391602073
2.1300001144409	-21.480245707189
2.1449999809265	-21.378289650834
2.1600000858307	-21.292227999781
2.1749999523163	-21.220850185793
2.1900000572205	-21.162947907191
2.2049999237061	-21.117229289847
2.2200000286102	-21.082230561051
2.2349998950958	-21.056233887697
2.2500000000000	-21.037181308240
2.2650001049042	-21.022590208112
2.2799999713898	-21.009489157344
2.2950000762939	-20.994375746845
2.3099999427795	-20.973190934725
2.3250000476837	-20.941372777029
2.3399999141693	-20.893951975159
2.3550000190735	-20.825753253183
2.3699998855591	-20.731662686346
2.3849999904633	-20.606987256439
2.4000000953674	-20.447829929451
2.4149999618530	-20.251473249585
2.4300000667572	-20.016643375909
2.4449999332428	-19.743668120432
2.4600000381470	-19.434444010005
2.4749999046326	-19.092230782329
2.4900000095367	-18.721335066319
2.5050001144409	-18.326726987260
2.5199999809265	-17.913665583976
2.5350000858307	-17.487361367498
2.5499999523163	-17.052739767768
2.5650000572205	-16.614254495173
2.5799999237061	-16.175825601597
2.5950000286102	-15.740790305020
2.6099998950958	-15.311933097551
2.6250000000000	-14.891521265967
2.6400001049042	-14.481358715602
2.6549999713898	-14.082857087627
2.6700000762939	-13.697081269876
2.6849999427795	-13.324815952333
2.7000000476837	-12.966610220810
2.7149999141693	-12.622824303388
2.7300000190735	-12.293657608658
2.7449998855591	-11.979187745542
2.7599999904633	-11.679392075925
2.7750000953674	-11.394165432234
2.7899999618530	-11.123342856443
2.8050000667572	-10.866708971929
2.8199999332428	-10.624009396161
2.8350000381470	-10.394963487232
2.8499999046326	-10.179262756138
2.8650000095367	-9.9765890470698
2.8800001144409	-9.7866062905953
2.8949999809265	-9.6089720607562
2.9100000858307	-9.4433425992767
2.9249999523163	-9.2893647687824
2.9400000572205	-9.1466901618566
2.9549999237061	-9.0149665776608
2.9700000286102	-8.8938438263559
2.9849998950958	-8.7829769411469
3.0000000000000	-8.6820226746402
3.0150001049042	-8.5906434130140
3.0299999713898	-8.5085007827227
3.0450000762939	-8.4352678830141
3.0599999427795	-8.3706197901291
3.0750000476837	-8.3142417388431
3.0899999141693	-8.2658189655304
3.1050000190735	-8.2250503629014
3.1199998855591	-8.1916392751757
3.1349999904633	-8.1652979120263
3.1500000953674	-8.1457505860860
3.1649999618530	-8.1327289745393
3.1800000667572	-8.1259777281684
3.1949999332428	-8.1252500768215
3.2100000381470	-8.1303163625292
3.2249999046326	-8.1409598645915
3.2400000095367	-8.1569771943389
3.2550001144409	-8.1781834299489
3.2699999809265	-8.2044080540592
3.2850000858307	-8.2355008960407
3.2999999523163	-8.2713305027512
3.3150000572205	-8.3117823511209
3.3299999237061	-8.3567639802070
3.3450000286102	-8.4062032780023
3.3599998950958	-8.4600481470579
3.3750000000000	-8.5182693965801
3.3900001049042	-8.5808555225782
3.4049999713898	-8.6478189188262
3.4200000762939	-8.7191881353923
3.4349999427795	-8.7950158196480
3.4500000476837	-8.8753702595924
3.4649999141693	-8.9603331974366
3.4800000190735	-9.0500105029944
3.4949998855591	-9.1445209700579
3.5099999904633	-9.2439913814359
3.5250000953674	-9.3485699399550
3.5399999618530	-9.4584075176646
3.5550000667572	-9.5736706210072
3.5699999332428	-9.6945309731420
3.5850000381470	-9.8211700202539
3.5999999046326	-9.9537723847891
3.6150000095367	-10.092525780062
3.6300001144409	-10.237626042250
3.6449999809265	-10.389271893939
3.6600000858307	-10.547660747006
3.6749999523163	-10.712996431515
3.6900000572205	-10.885484689158
3.7049999237061	-11.065335181208
3.7200000286102	-11.252759100538
3.7349998950958	-11.447976270321
3.7500000000000	-11.651210929645
3.7650001049042	-11.862699682607
3.7799999713898	-12.082688198686
3.7950000762939	-12.311442334610
3.8099999427795	-12.549246941552
3.8250000476837	-12.796410315287
3.8399999141693	-13.053276615090
3.8550000190735	-13.320226039035
3.8699998855591	-13.597689536540
3.8849999904633	-13.886156432889
3.9000000953674	-14.186179288500
3.9149999618530	-14.498402785405
3.9300000667572	-14.823565140835
3.9449999332428	-15.162524483831
3.9600000381470	-15.516279076165
3.9749999046326	-15.885992730389
3.9900000095367	-16.273027186131
4.0050001144409	-16.678982981003
4.0199999809265	-17.105741119644
4.0349998474121	-17.555525537591
4.0500001907349	-18.030980524960
4.0650000572205	-18.535257863177
4.0799999237061	-19.072150794230
4.0949997901917	-19.646256780069
4.1100001335144	-20.263202257011
4.1250000000000	-20.929970457604
4.1399998664856	-21.655338588547
4.1550002098083	-22.450557633254
4.1700000762939	-23.330352167672
4.1849999427795	-24.314522665860
4.1999998092651	-25.430585838380
4.2150001525879	-26.718397493117
4.2300000190735	-28.238897697382
4.2449998855591	-30.092239806155
4.2600002288818	-32.460796690405
4.2750000953674	-35.733091537382
4.2899999618530	-40.995171229395
4.3049998283386	-52.246104140541
4.3200001716614	-43.241531911177
4.3350000381470	-36.894424440079
4.3499999046326	-33.213438065202
4.3649997711182	-30.629295388355
4.3800001144409	-28.641530414657
4.3949999809265	-27.029324534196
4.4099998474121	-25.676044225858
4.4250001907349	-24.512660996778
4.4400000572205	-23.494973735470
4.4549999237061	-22.592991742699
4.4699997901917	-21.785447073130
4.4850001335144	-21.056708153989
4.5000000000000	-20.394949767493
4.5149998664856	-19.791018215377
4.5300002098083	-19.237664032890
4.5450000762939	-18.729055455355
4.5599999427795	-18.260417035649
4.5749998092651	-17.827783921615
4.5900001525879	-17.427820759527
4.6050000190735	-17.057687057920
4.6199998855591	-16.714931093664
4.6350002288818	-16.397415479602
4.6500000953674	-16.103257849078
4.6649999618530	-15.830778066064
4.6799998283386	-15.578462297744
4.6950001716614	-15.344931686308
4.7100000381470	-15.128919850271
4.7249999046326	-14.929246517254
4.7399997711182	-14.744803834123
4.7550001144409	-14.574545848266
4.7699999809265	-14.417463966121
4.7849998474121	-14.272594563568
4.8000001907349	-14.138996604274
4.8150000572205	-14.015753461098
4.8299999237061	-13.901962630722
4.8449997901917	-13.796737323994
4.8600001335144	-13.699194481266
4.8750000000000	-13.608467078413
4.8899998664856	-13.523690861555
4.9050002098083	-13.444014885142
4.9200000762939	-13.368594681815
4.9349999427795	-13.296604933892
4.9499998092651	-13.227236629998
4.9650001525879	-13.159704051838
4.9800000190735	-13.093246499741
4.9949998855591	-13.027141661927
5.0100002288818	-12.960705374563
5.0250000953674	-12.893300008020
5.0399999618530	-12.824334203654
5.0549998283386	-12.753281234963
5.0700001716614	-12.679666547704
5.0850000381470	-12.603081140654
5.0999999046326	-12.523178530421
5.1149997711182	-12.439678284958
5.1300001144409	-12.352362739069
5.1449999809265	-12.261076051764
5.1599998474121	-12.165712835143
5.1750001907349	-12.066228793977
5.1900000572205	-11.962616986373
5.2049999237061	-11.854914143992
5.2199997901917	-11.743193155358
5.2350001335144	-11.627548117711
5.2500000000000	-11.508099591574
5.2649998664856	-11.384981955409
5.2800002098083	-11.258335654197
5.2950000762939	-11.128312816684
5.3099999427795	-10.995065886477
5.3249998092651	-10.858746631192
5.3400001525879	-10.719511845020
5.3550000190735	-10.577505795735
5.3699998855591	-10.432878424944
5.3850002288818	-10.285778889913
5.4000000953674	-10.136351728378
5.4149999618530	-9.9847447855447
5.4299998283386	-9.8311086930427
5.4450001716614	-9.6755953776665
5.4600000381470	-9.5183660656146
5.4749999046326	-9.3595890088734
5.4899997711182	-9.1994382577017
5.5050001144409	-9.0380989628224
5.5199999809265	-8.8757634699593
5.5349998474121	-8.7126388329933
5.5500001907349	-8.5489301903088
5.5650000572205	-8.3848644404356
5.5799999237061	-8.2206668520890
5.5949997901917	-8.0565687082449
5.6100001335144	-7.8928107713855
5.6250000000000	-7.7296299354545
5.6399998664856	-7.5672663744584
5.6550002098083	-7.4059572150679
5.6700000762939	-7.2459352416532
5.6849999427795	-7.0874277048651
5.6999998092651	-6.9306561269276
5.7150001525879	-6.7758278329958
5.7300000190735	-6.6231405089527
5.7449998855591	-6.4727814676896
5.7600002288818	-6.3249210273567
5.7750000953674	-6.1797146116362
5.7899999618530	-6.0373043358390
5.8049998283386	-5.8978144056465
5.8200001716614	-5.7613509840551
5.8350000381470	-5.6280068931137
5.8499999046326	-5.4978536005720
5.8649997711182	-5.3709480040918
5.8800001144409	-5.2473313168799
5.8949999809265	-5.1270275642266
5.9099998474121	-5.0100456431720
5.9250001907349	-4.8963806243543
5.9400000572205	-4.7860111760200
5.9549999237061	-4.6789048746642
5.9699997901917	-4.5750177711988
5.9850001335144	-4.4742934109167
6.0000000000000	-4.3766635343113
6.0149998664856	-4.2820523824347
6.0300002098083	-4.1903790169507
6.0450000762939	-4.1015515853395
6.0599999427795	-4.0154745073154
6.0749998092651	-3.9320471446980
6.0900001525879	-3.8511666436548
6.1050000190735	-3.7727270695157
6.1199998855591	-3.6966248077028
6.1350002288818	-3.6227511933103
6.1500000953674	-3.5510034422745
6.1649999618530	-3.4812799085812
6.1799998283386	-3.4134818172122
6.1950001716614	-3.3475155850428
6.2100000381470	-3.2832932110764
6.2249999046326	-3.2207334437563
6.2399997711182	-3.1597594190424
6.2550001144409	-3.1003044173091
6.2699999809265	-3.0423036937965
6.2849998474121	-2.9857088181907
6.3000001907349	-2.9304733314234
6.3150000572205	-2.8765591986352
6.3299999237061	-2.8239376518530
6.3449997901917	-2.7725861141671
6.3600001335144	-2.7224917833719
6.3750000000000	-2.6736457159205
6.3899998664856	-2.6260442033679
6.4050002098083	-2.5796928416271
6.4200000762939	-2.5345963064202
6.4349999427795	-2.4907681253161
6.4499998092651	-2.4482208359346
6.4650001525879	-2.4069704502341
6.4800000190735	-2.3670348626682
6.4949998855591	-2.3284284163016
6.5100002288818	-2.2911672071125
6.5250000953674	-2.2552678578975
6.5399999618530	-2.2207363993405
6.5549998283386	-2.1875853573284
6.5700001716614	-2.1558154866836
6.5850000381470	-2.1254257453056
6.5999999046326	-2.0964118310449
6.6149997711182	-2.0687606931056
6.6300001144409	-2.0424526775139
6.6449999809265	-2.0174651338714
6.6599998474121	-1.9937652409124
6.6750001907349	-1.9713189610855
6.6900000572205	-1.9500812076682
6.7049999237061	-1.9300013520588
6.7199997901917	-1.9110262942041
6.7350001335144	-1.8930930011799
6.7500000000000	-1.8761418129093
6.7649998664856	-1.8600968920842
6.7800002098083	-1.8448925403429
6.7950000762939	-1.8304499599548
6.8099999427795	-1.8166951971244
6.8249998092651	-1.8035508047716
6.8400001525879	-1.7909412418651
6.8550000190735	-1.7787921700417
6.8699998855591	-1.7670316802009
6.8850002288818	-1.7555917236858
6.9000000953674	-1.7444074376375
6.9149999618530	-1.7334192677013
6.9299998283386	-1.7225759207111
6.9450001716614	-1.7118313012511
6.9600000381470	-1.7011470574564
6.9749999046326	-1.6904904524487
6.9899997711182	-1.6798417697736
7.0050001144409	-1.6691857749746
7.0199999809265	-1.6585164907244
7.0349998474121	-1.6478358137241
7.0500001907349	-1.6371549415745
7.0650000572205	-1.6264901282880
7.0799999237061	-1.6158653433799
7.0949997901917	-1.6053129594110
7.1100001335144	-1.5948675070266
7.1250000000000	-1.5845689729710
7.1399998664856	-1.5744604969758
7.1550002098083	-1.5645893524765
7.1700000762939	-1.5550007211785
7.1849999427795	-1.5457427591550
7.1999998092651	-1.5368630767211
7.2150001525879	-1.5284031389649
7.2300000190735	-1.5204077759038
7.2449998855591	-1.5129133358400
7.2600002288818	-1.5059533676758
7.2750000953674	-1.4995545060429
7.2899999618530	-1.4937376012772
7.3049998283386	-1.4885200555194
7.3200001716614	-1.4839078308887
7.3350000381470	-1.4799017752698
7.3499999046326	-1.4764949475482
7.3649997711182	-1.4736721739004
7.3800001144409	-1.4714117013498
7.3949999809265	-1.4696851241810
7.4099998474121	-1.4684558978122
7.4250001907349	-1.4676829108933
7.4400000572205	-1.4673181907972
7.4549999237061	-1.4673106830205
7.4699997901917	-1.4676037166098
7.4850001335144	-1.4681388627740
7.5000000000000	-1.4688571788407
7.5149998664856	-1.4696959795838
7.5300002098083	-1.4705948280484
7.5450000762939	-1.4714949180553
7.5599999427795	-1.4723393393599
7.5749998092651	-1.4730747033077
7.5900001525879	-1.4736539004100
7.6050000190735	-1.4740322438240
7.6199998855591	-1.4741750026656
7.6350002288818	-1.4740516717137
7.6500000953674	-1.4736407584005
7.6649999618530	-1.4729276366403
7.6799998283386	-1.4719072025546
7.6950001716614	-1.4705809272146
7.7100000381470	-1.4689608729717
7.7249999046326	-1.4670635729295
7.7399997711182	-1.4649139425754
7.7550001144409	-1.4625452083531
7.7699999809265	-1.4599953266649
7.7849998474121	-1.4573092266031
7.8000001907349	-1.4545309744734
7.8150000572205	-1.4517149242443
7.8299999237061	-1.4489114675040
7.8449997901917	-1.4461750685317
7.8600001335144	-1.4435601546563
7.8750000000000	-1.4411188329953
7.8899998664856	-1.4388989966729
7.9050002098083	-1.4369506272838
7.9200000762939	-1.4353132619542
7.9349999427795	-1.4340245908120
7.9499998092651	-1.4331150501545
7.9650001525879	-1.4326104272178
7.9800000190735	-1.4325271675634
7.9949998855591	-1.4328724760453
8.0100002288818	-1.4336511707321
8.0249996185303	-1.4348559602878
8.0399999618530	-1.4364716013328
8.0550003051758	-1.4384769250419
8.0699996948242	-1.4408454575579
8.0850000381470	-1.4435365117947
8.1000003814697	-1.4465137525745
8.1149997711182	-1.4497253140405
8.1300001144409	-1.4531246648500
8.1450004577637	-1.4566508466209
8.1599998474121	-1.4602504143847
8.1750001907349	-1.4638643087513
8.1899995803833	-1.4674316099622
8.2049999237061	-1.4708971435569
8.2200002670288	-1.4742029223245
8.2349996566772	-1.4772990921311
8.2500000000000	-1.4801363071942
8.2650003433228	-1.4826705515333
8.2799997329712	-1.4848678168344
8.2950000762939	-1.4866981052225
8.3100004196167	-1.4881391999420
8.3249998092651	-1.4891773330974
8.3400001525879	-1.4898083934224
8.3549995422363	-1.4900333348710
8.3699998855591	-1.4898661196210
8.3850002288818	-1.4893234297657
8.3999996185303	-1.4884346697300
8.4149999618530	-1.4872325339218
8.4300003051758	-1.4857585146145
8.4449996948242	-1.4840569055263
8.4600000381470	-1.4821798033512
8.4750003814697	-1.4801812323621
8.4899997711182	-1.4781158792000
8.5050001144409	-1.4760411071623
8.5200004577637	-1.4740158288438
8.5349998474121	-1.4720931060948
8.5500001907349	-1.4703289256985
8.5649995803833	-1.4687703300486
8.5799999237061	-1.4674662292893
8.5950002670288	-1.4664544800044
8.6099996566772	-1.4657673809089
8.6250000000000	-1.4654316836064
