#Parameters = {er=9.225928233; tanD=0.514061604; PHANUP=14; a=0.95; b=0.5; c=1; d=1; gl=0; gw=30; l=8.5; l1=11; l2=13; mt=0.018; r=14; s=2; sf=1; sf1=1; sgl=2; sgw=2; sl=53; sl1=60; slotl=-2; slotw=1; sls=0; stripl=15; stripw=0.5; sw=30; t=0.13; w=1}
#"Frequency / GHz"	"S1,1 (40) [Magnitude]"
#-----------------------------------------
0.0000000000000	-35.146884260585
0.014999999664724	-34.675713107193
0.029999999329448	-33.517287557694
0.045000001788139	-32.108075459268
0.059999998658895	-30.716379499786
0.075000002980232	-29.444350663418
0.090000003576279	-28.314679855392
0.10499999672174	-27.321009612991
0.11999999731779	-26.448454184691
0.13500000536442	-25.680854809502
0.15000000596046	-25.003027316897
0.16500000655651	-24.401162674900
0.18000000715256	-23.862661739766
0.19499999284744	-23.375787399102
0.20999999344349	-22.929336672883
0.22499999403954	-22.512398853394
0.23999999463558	-22.114235997262
0.25499999523163	-21.724314926573
0.27000001072884	-21.332506492419
0.28499999642372	-20.929447812911
0.30000001192093	-20.507018687317
0.31499999761581	-20.058861218869
0.33000001311302	-19.580809506167
0.34499999880791	-19.071136234181
0.36000001430511	-18.530524864148
0.37500000000000	-17.961784096208
0.38999998569489	-17.369347111930
0.40500000119209	-16.758673378311
0.41999998688698	-16.135673866278
0.43500000238419	-15.506214227018
0.44999998807907	-14.875767437408
0.46500000357628	-14.249197821982
0.47999998927116	-13.630661888859
0.49500000476837	-13.023590630814
0.50999999046326	-12.430738999659
0.52499997615814	-11.854253970800
0.54000002145767	-11.295758430029
0.55500000715256	-10.756432699580
0.56999999284744	-10.237102617974
0.58499997854233	-9.7382934940086
0.60000002384186	-9.2603025619158
0.61500000953674	-8.8032390798330
0.62999999523163	-8.3670678664678
0.64499998092651	-7.9516384961467
0.66000002622604	-7.5567171251063
0.67500001192093	-7.1819972897248
0.68999999761581	-6.8271272040752
0.70499998331070	-6.4917146010514
0.72000002861023	-6.1753444944542
0.73500001430511	-5.8775832609344
0.75000000000000	-5.5979850681688
0.76499998569489	-5.3361063025306
0.77999997138977	-5.0914954079954
0.79500001668930	-4.8637168264172
0.81000000238419	-4.6523387056643
0.82499998807907	-4.4569393609743
0.83999997377396	-4.2771199474000
0.85500001907349	-4.1124964077806
0.87000000476837	-3.9627036586402
0.88499999046326	-3.8273989940246
0.89999997615814	-3.7062685393636
0.91500002145767	-3.5990233117698
0.93000000715256	-3.5053975577741
0.94499999284744	-3.4251586919167
0.95999997854233	-3.3581037569473
0.97500002384186	-3.3040556124679
0.99000000953674	-3.2628727474452
1.0049999952316	-3.2344442031470
1.0199999809265	-3.2186909456722
1.0349999666214	-3.2155663777590
1.0499999523163	-3.2250567699814
1.0650000572205	-3.2471815774549
1.0800000429153	-3.2819928112312
1.0950000286102	-3.3295723538998
1.1100000143051	-3.3900396863373
1.1250000000000	-3.4635429057342
1.1399999856949	-3.5502642206994
1.1549999713898	-3.6504164002426
1.1699999570847	-3.7642427766109
1.1849999427795	-3.8920201422611
1.2000000476837	-4.0340515834990
1.2150000333786	-4.1906774670533
1.2300000190735	-4.3622628371346
1.2450000047684	-4.5492059212944
1.2599999904633	-4.7519357627894
1.2749999761581	-4.9709103068505
1.2899999618530	-5.2066201227842
1.3049999475479	-5.4595909031480
1.3200000524521	-5.7303826604712
1.3350000381470	-6.0195924815455
1.3500000238419	-6.3278593415731
1.3650000095367	-6.6558681354076
1.3799999952316	-7.0043511894659
1.3949999809265	-7.3741041472763
1.4099999666214	-7.7659868457267
1.4249999523163	-8.1809389875260
1.4400000572205	-8.6199884484332
1.4550000429153	-9.0842776508127
1.4700000286102	-9.5750745214775
1.4850000143051	-10.093807893628
1.5000000000000	-10.642092514913
1.5149999856949	-11.221777058646
1.5299999713898	-11.834988746309
1.5449999570847	-12.484211084712
1.5599999427795	-13.172360582859
1.5750000476837	-13.902903346025
1.5900000333786	-14.680007990023
1.6050000190735	-15.508749395414
1.6200000047684	-16.395390798435
1.6349999904633	-17.347781468419
1.6499999761581	-18.375933621418
1.6649999618530	-19.492881868484
1.6799999475479	-20.716004131345
1.6950000524521	-22.069137788731
1.7100000381470	-23.586113984236
1.7250000238419	-25.317016502973
1.7400000095367	-27.339896812445
1.7549999952316	-29.784088656149
1.7699999809265	-32.876754653820
1.7849999666214	-36.988209480286
1.7999999523163	-41.641249537439
1.8150000572205	-40.533320689045
1.8300000429153	-36.371759526799
1.8450000286102	-33.288101645629
1.8600000143051	-31.073114094804
1.8750000000000	-29.403817267811
1.8899999856949	-28.095023870754
1.9049999713898	-27.038911338300
1.9199999570847	-26.168506614650
1.9349999427795	-25.439668418407
1.9500000476837	-24.821844986602
1.9650000333786	-24.293044677140
1.9800000190735	-23.836934384499
1.9950000047684	-23.441073913043
2.0099999904633	-23.095809288602
2.0250000953674	-22.793533453783
2.0399999618530	-22.528192156378
2.0550000667572	-22.294928683694
2.0699999332428	-22.089834552223
2.0850000381470	-21.909747910915
2.0999999046326	-21.752104027223
2.1150000095367	-21.614805177439
2.1300001144409	-21.496114095334
2.1449999809265	-21.394559255556
2.1600000858307	-21.308837339160
2.1749999523163	-21.237729914313
2.1900000572205	-21.180021485044
2.2049999237061	-21.134404395978
2.2200000286102	-21.099404565702
2.2349998950958	-21.073287820919
2.2500000000000	-21.053973402607
2.2650001049042	-21.038963380224
2.2799999713898	-21.025265931675
2.2950000762939	-21.009352208467
2.3099999427795	-20.987148663558
2.3250000476837	-20.954071850498
2.3399999141693	-20.905152771505
2.3550000190735	-20.835219250786
2.3699998855591	-20.739178985513
2.3849999904633	-20.612373137866
2.4000000953674	-20.450968396059
2.4149999618530	-20.252309172706
2.4300000667572	-20.015197638307
2.4449999332428	-19.740039499215
2.4600000381470	-19.428797240795
2.4749999046326	-19.084777975273
2.4900000095367	-18.712321653562
2.5050001144409	-18.316419556362
2.5199999809265	-17.902319823421
2.5350000858307	-17.475225662397
2.5499999523163	-17.040031504699
2.5650000572205	-16.601168696971
2.5799999237061	-16.162525970237
2.5950000286102	-15.727416391345
2.6099998950958	-15.298594180293
2.6250000000000	-14.878305872929
2.6400001049042	-14.468337849620
2.6549999713898	-14.070082686342
2.6700000762939	-13.684591842569
2.6849999427795	-13.312640418406
2.7000000476837	-12.954770372503
2.7149999141693	-12.611331482107
2.7300000190735	-12.282519625029
2.7449998855591	-11.968408351243
2.7599999904633	-11.668970844156
2.7750000953674	-11.384100362433
2.7899999618530	-11.113631081681
2.8050000667572	-10.857344099048
2.8199999332428	-10.614986267696
2.8350000381470	-10.386273349814
2.8499999046326	-10.170900172326
2.8650000095367	-9.9685441331336
2.8800001144409	-9.7788717910947
2.8949999809265	-9.6015431781269
2.9100000858307	-9.4362104727886
2.9249999523163	-9.2825216028762
2.9400000572205	-9.1401296308499
2.9549999237061	-9.0086807187901
2.9700000286102	-8.8878281954362
2.9849998950958	-8.7772234160022
3.0000000000000	-8.6765278393642
3.0150001049042	-8.5853975085105
3.0299999713898	-8.5035004050190
3.0450000762939	-8.4305080232369
3.0599999427795	-8.3660948658633
3.0750000476837	-8.3099449468064
3.0899999141693	-8.2617471103833
3.1050000190735	-8.2211981404707
3.1199998855591	-8.1880012624932
3.1349999904633	-8.1618710435835
3.1500000953674	-8.1425287595027
3.1649999618530	-8.1297074919165
3.1800000667572	-8.1231500530434
3.1949999332428	-8.1226120366529
3.2100000381470	-8.1278636628355
3.2249999046326	-8.1386865587563
3.2400000095367	-8.1548789031203
3.2550001144409	-8.1762542876348
3.2699999809265	-8.2026418025171
3.2850000858307	-8.2338926141532
3.2999999523163	-8.2698748157803
3.3150000572205	-8.3104729899578
3.3299999237061	-8.3555944734611
3.3450000286102	-8.4051678983037
3.3599998950958	-8.4591427129421
3.3750000000000	-8.5174865973201
3.3900001049042	-8.5801910594622
3.4049999713898	-8.6472651753065
3.4200000762939	-8.7187409036971
3.4349999427795	-8.7946680675773
3.4500000476837	-8.8751152714961
3.4649999141693	-8.9601700500467
3.4800000190735	-9.0499330846306
3.4949998855591	-9.1445226663149
3.5099999904633	-9.2440696484599
3.5250000953674	-9.3487208434792
3.5399999618530	-9.4586284514884
3.5550000667572	-9.5739584788171
3.5699999332428	-9.6948826202498
3.5850000381470	-9.8215841749395
3.5999999046326	-9.9542473037719
3.6150000095367	-10.093062580034
3.6300001144409	-10.238224652399
3.6449999809265	-10.389931641572
3.6600000858307	-10.548385413542
3.6749999523163	-10.713787504379
3.6900000572205	-10.886345974174
3.7049999237061	-11.066268410483
3.7200000286102	-11.253772149051
3.7349998950958	-11.449072550481
3.7500000000000	-11.652400227712
3.7650001049042	-11.863987822661
3.7799999713898	-12.084086847720
3.7950000762939	-12.312961975966
3.8099999427795	-12.550899343697
3.8250000476837	-12.798210160154
3.8399999141693	-13.055237545541
3.8550000190735	-13.322367952897
3.8699998855591	-13.600031138704
3.8849999904633	-13.888715492449
3.9000000953674	-14.188984139933
3.9149999618530	-14.501476940713
3.9300000667572	-14.826938637956
3.9449999332428	-15.166230227803
3.9600000381470	-15.520351429919
3.9749999046326	-15.890472391734
3.9900000095367	-16.277959930418
4.0050001144409	-16.684419907772
4.0199999809265	-17.111738811597
4.0349998474121	-17.562151434987
4.0500001907349	-18.038307670338
4.0650000572205	-18.543376598182
4.0799999237061	-19.081161912541
4.0949997901917	-19.656283865766
4.1100001335144	-20.274395408822
4.1250000000000	-20.942510630499
4.1399998664856	-21.669455524313
4.1550002098083	-22.466545991524
4.1700000762939	-23.348600148087
4.1849999427795	-24.335557395578
4.1999998092651	-25.455153036470
4.2150001525879	-26.747604920089
4.2300000190735	-28.274491686378
4.2449998855591	-30.137229636460
4.2600002288818	-32.521041766619
4.2750000953674	-35.822455111784
4.2899999618530	-41.160707414155
4.3049998283386	-52.577674568344
4.3200001716614	-43.048988228393
4.3350000381470	-36.794323845294
4.3499999046326	-33.146668263823
4.3649997711182	-30.579365392287
4.3800001144409	-28.601769804919
4.3949999809265	-26.996399315304
4.4099998474121	-25.648053992856
4.4250001907349	-24.488418332319
4.4400000572205	-23.473691073094
4.4549999237061	-22.574119229207
4.4699997901917	-21.768584481454
4.4850001335144	-21.041555479248
4.5000000000000	-20.381280006039
4.5149998664856	-19.778650277246
4.5300002098083	-19.226455141652
4.5450000762939	-18.718888584361
4.5599999427795	-18.251196124712
4.5749998092651	-17.819430209048
4.5900001525879	-17.420267586177
4.6050000190735	-17.050875824593
4.6199998855591	-16.708814084629
4.6350002288818	-16.391952332895
4.6500000953674	-16.098409805619
4.6649999618530	-15.826513763260
4.6799998283386	-15.574751962811
4.6950001716614	-15.341751784448
4.7100000381470	-15.126247787004
4.7249999046326	-14.927058884837
4.7399997711182	-14.743083795059
4.7550001144409	-14.573272466305
4.7699999809265	-14.416621586367
4.7849998474121	-14.272167971565
4.8000001907349	-14.138968694638
4.8150000572205	-14.016109182642
4.8299999237061	-13.902684810772
4.8449997901917	-13.797807691329
4.8600001335144	-13.700599666320
4.8750000000000	-13.610188015520
4.8899998664856	-13.525710615475
4.9050002098083	-13.446313882640
4.9200000762939	-13.371151889764
4.9349999427795	-13.299401089694
4.9499998092651	-13.230250076579
4.9650001525879	-13.162910042662
4.9800000190735	-13.096621423500
4.9949998855591	-13.030663492542
5.0100002288818	-12.964348297588
5.0250000953674	-12.897038869944
5.0399999618530	-12.828145296746
5.0549998283386	-12.757137829170
5.0700001716614	-12.683542962886
5.0850000381470	-12.606952362464
5.0999999046326	-12.527024134338
5.1149997711182	-12.443475841647
5.1300001144409	-12.356090592030
5.1449999809265	-12.264714779730
5.1599998474121	-12.169245853467
5.1750001907349	-12.069638269118
5.1900000572205	-11.965891289428
5.2049999237061	-11.858040590473
5.2199997901917	-11.746161632911
5.2350001335144	-11.630352731173
5.2500000000000	-11.510732853989
5.2649998664856	-11.387436440693
5.2800002098083	-11.260611810723
5.2950000762939	-11.130407216372
5.3099999427795	-10.996979106997
5.3249998092651	-10.860481448526
5.3400001525879	-10.721066196396
5.3550000190735	-10.578884947072
5.3699998855591	-10.434088334673
5.3850002288818	-10.286820971437
5.4000000953674	-10.137231960694
5.4149999618530	-9.9854668034716
5.4299998283386	-9.8316781938410
5.4450001716614	-9.6760217194550
5.4600000381470	-9.5186549718189
5.4749999046326	-9.3597459249736
5.4899997711182	-9.1994693344600
5.5050001144409	-9.0380125626134
5.5199999809265	-8.8755667002515
5.5349998474121	-8.7123355111767
5.5500001907349	-8.5485325950244
5.5650000572205	-8.3843780454581
5.5799999237061	-8.2200967423259
5.5949997901917	-8.0559261678334
5.6100001335144	-7.8920988829622
5.6250000000000	-7.7288574468595
5.6399998664856	-7.5664390602728
5.6550002098083	-7.4050825606201
5.6700000762939	-7.2450209255978
5.6849999427795	-7.0864789346276
5.6999998092651	-6.9296786547530
5.7150001525879	-6.7748266981059
5.7300000190735	-6.6221217962534
5.7449998855591	-6.4717513081219
5.7600002288818	-6.3238831198686
5.7750000953674	-6.1786760639072
5.7899999618530	-6.0362674002472
5.8049998283386	-5.8967836776026
5.8200001716614	-5.7603313068414
5.8350000381470	-5.6269991272991
5.8499999046326	-5.4968630914496
5.8649997711182	-5.3699778307323
5.8800001144409	-5.2463827519399
5.8949999809265	-5.1261043534694
5.9099998474121	-5.0091508450707
5.9250001907349	-4.8955119909932
5.9400000572205	-4.7851744439573
5.9549999237061	-4.6780998079221
5.9699997901917	-4.5742435976822
5.9850001335144	-4.4735516191328
6.0000000000000	-4.3759537063297
6.0149998664856	-4.2813765294247
6.0300002098083	-4.1897362784738
6.0450000762939	-4.1009412230328
6.0599999427795	-4.0148954713356
6.0749998092651	-3.9315003455170
6.0900001525879	-3.8506499832236
6.1050000190735	-3.7722409487389
6.1199998855591	-3.6961658676212
6.1350002288818	-3.6223202040382
6.1500000953674	-3.5505973808499
6.1649999618530	-3.4808983000673
6.1799998283386	-3.4131241049528
6.1950001716614	-3.3471791512844
6.2100000381470	-3.2829769723972
6.2249999046326	-3.2204361470842
6.2399997711182	-3.1594790523844
6.2550001144409	-3.1000390012542
6.2699999809265	-3.0420526532986
6.2849998474121	-2.9854713144230
6.3000001907349	-2.9302470321064
6.3150000572205	-2.8763427183766
6.3299999237061	-2.8237305644598
6.3449997901917	-2.7723901145589
6.3600001335144	-2.7223034128361
6.3750000000000	-2.6734636539963
6.3899998664856	-2.6258695873426
6.4050002098083	-2.5795249866648
6.4200000762939	-2.5344362350603
6.4349999427795	-2.4906137452464
6.4499998092651	-2.4480729907932
6.4650001525879	-2.4068296191841
6.4800000190735	-2.3668998110482
6.4949998855591	-2.3283005452350
6.5100002288818	-2.2910485172182
6.5250000953674	-2.2551549421549
6.5399999618530	-2.2206328211721
6.5549998283386	-2.1874910047886
6.5700001716614	-2.1557310969465
6.5850000381470	-2.1253517099839
6.5999999046326	-2.0963470769673
6.6149997711182	-2.0687058181059
6.6300001144409	-2.0424091234443
6.6449999809265	-2.0174335768429
6.6599998474121	-1.9937456917530
6.6750001907349	-1.9713109702418
6.6900000572205	-1.9500833558330
6.7049999237061	-1.9300158639535
6.7199997901917	-1.9110503262080
6.7350001335144	-1.8931310904442
6.7500000000000	-1.8761885438957
6.7649998664856	-1.8601544930347
6.7800002098083	-1.8449589362837
6.7950000762939	-1.8305244782794
6.8099999427795	-1.8167771834767
6.8249998092651	-1.8036403701080
6.8400001525879	-1.7910368738357
6.8550000190735	-1.7788930221662
6.8699998855591	-1.7671360731416
6.8850002288818	-1.7556987231759
6.9000000953674	-1.7445148971777
6.9149999618530	-1.7335282320886
6.9299998283386	-1.7226840932385
6.9450001716614	-1.7119382512080
6.9600000381470	-1.7012515508288
6.9749999046326	-1.6905918514411
6.9899997711182	-1.6799382081734
7.0050001144409	-1.6692778826510
7.0199999809265	-1.6586034907169
7.0349998474121	-1.6479187067403
7.0500001907349	-1.6372309986304
7.0650000572205	-1.6265610340870
7.0799999237061	-1.6159308568553
7.0949997901917	-1.6053726587621
7.1100001335144	-1.5949218453368
7.1250000000000	-1.5846193273370
7.1399998664856	-1.5745072926718
7.1550002098083	-1.5646315616785
7.1700000762939	-1.5550414244069
7.1849999427795	-1.5457823546360
7.1999998092651	-1.5369013347215
7.2150001525879	-1.5284426920627
7.2300000190735	-1.5204504964362
7.2449998855591	-1.5129583116062
7.2600002288818	-1.5060017259068
7.2750000953674	-1.4996087031869
7.2899999618530	-1.4937980114810
7.3049998283386	-1.4885882486403
7.3200001716614	-1.4839839880415
7.3350000381470	-1.4799869492728
7.3499999046326	-1.4765892074660
7.3649997711182	-1.4737761379017
7.3800001144409	-1.4715261556771
7.3949999809265	-1.4698095036229
7.4099998474121	-1.4685908419039
7.4250001907349	-1.4678288777468
7.4400000572205	-1.4674741948632
7.4549999237061	-1.4674759719869
7.4699997901917	-1.4677781401205
7.4850001335144	-1.4683216828363
7.5000000000000	-1.4690466159628
7.5149998664856	-1.4698917493553
7.5300002098083	-1.4707950683254
7.5450000762939	-1.4716993272540
7.5599999427795	-1.4725453938160
7.5749998092651	-1.4732816245614
7.5900001525879	-1.4738597382862
7.6050000190735	-1.4742380870156
7.6199998855591	-1.4743759889996
7.6350002288818	-1.4742487539259
7.6500000953674	-1.4738309307259
7.6649999618530	-1.4731110980433
7.6799998283386	-1.4720811760046
7.6950001716614	-1.4707459142144
7.7100000381470	-1.4691141740604
7.7249999046326	-1.4672056422908
7.7399997711182	-1.4650445363798
7.7550001144409	-1.4626635561628
7.7699999809265	-1.4601021679893
7.7849998474121	-1.4574015845095
7.8000001907349	-1.4546127108471
7.8150000572205	-1.4517836721254
7.8299999237061	-1.4489676762500
7.8449997901917	-1.4462209438587
7.8600001335144	-1.4435945748170
7.8750000000000	-1.4411440466880
7.8899998664856	-1.4389157999895
7.9050002098083	-1.4369593167205
7.9200000762939	-1.4353156261502
7.9349999427795	-1.4340211442066
7.9499998092651	-1.4331083450453
7.9650001525879	-1.4326005211274
7.9800000190735	-1.4325136134201
7.9949998855591	-1.4328600580792
8.0100002288818	-1.4336396867406
8.0249996185303	-1.4348460347531
8.0399999618530	-1.4364630383065
8.0550003051758	-1.4384731173385
8.0699996948242	-1.4408436581679
8.0850000381470	-1.4435418439050
8.1000003814697	-1.4465212864295
8.1149997711182	-1.4497390759951
8.1300001144409	-1.4531414167937
8.1450004577637	-1.4566734170882
8.1599998474121	-1.4602771042522
8.1750001907349	-1.4638961572070
8.1899995803833	-1.4674680175917
8.2049999237061	-1.4709355022863
8.2200002670288	-1.4742458243925
8.2349996566772	-1.4773426208251
8.2500000000000	-1.4801797369614
8.2650003433228	-1.4827140119706
8.2799997329712	-1.4849098914904
8.2950000762939	-1.4867386338733
8.3100004196167	-1.4881762943959
8.3249998092651	-1.4892094804034
8.3400001525879	-1.4898349254802
8.3549995422363	-1.4900548848561
8.3699998855591	-1.4898804033174
8.3850002288818	-1.4893304260865
8.3999996185303	-1.4884337141496
8.4149999618530	-1.4872224669248
8.4300003051758	-1.4857383751314
8.4449996948242	-1.4840272660173
8.4600000381470	-1.4821405480548
8.4750003814697	-1.4801311913547
8.4899997711182	-1.4780555288765
8.5050001144409	-1.4759717946986
8.5200004577637	-1.4739364678080
8.5349998474121	-1.4720056444924
8.5500001907349	-1.4702321992487
8.5649995803833	-1.4686666457320
8.5799999237061	-1.4673544289960
8.5950002670288	-1.4663359815126
8.6099996566772	-1.4656430115375
8.6250000000000	-1.4653033616277
