#Parameters = {er=9.236470422; tanD=0.513828503; PHANUP=14; a=0.95; b=0.5; c=1; d=1; gl=0; gw=30; l=8.5; l1=11; l2=13; mt=0.018; r=14; s=2; sf=1; sf1=1; sgl=2; sgw=2; sl=53; sl1=60; slotl=-2; slotw=1; sls=0; stripl=15; stripw=0.5; sw=30; t=0.13; w=1}
#"Frequency / GHz"	"S1,1 (31) [Magnitude]"
#-----------------------------------------
0.0000000000000	-35.148303806661
0.014999999664724	-34.676888926100
0.029999999329448	-33.517968626398
0.045000001788139	-32.108312026129
0.059999998658895	-30.716303874483
0.075000002980232	-29.444071114163
0.090000003576279	-28.314269914791
0.10499999672174	-27.320518984026
0.11999999731779	-26.447909768252
0.13500000536442	-25.680284100556
0.15000000596046	-25.002443597794
0.16500000655651	-24.400579983790
0.18000000715256	-23.862087214525
0.19499999284744	-23.375227938320
0.20999999344349	-22.928796787839
0.22499999403954	-22.511882383793
0.23999999463558	-22.113744529487
0.25499999523163	-21.723845282204
0.27000001072884	-21.332056764180
0.28499999642372	-20.929010880027
0.30000001192093	-20.506589408218
0.31499999761581	-20.058432632107
0.33000001311302	-19.580371643368
0.34499999880791	-19.070680051585
0.36000001430511	-18.530042657706
0.37500000000000	-17.961271120191
0.38999998569489	-17.368798578142
0.40500000119209	-16.758088549622
0.41999998688698	-16.135050727106
0.43500000238419	-15.505553004751
0.44999998807907	-14.875071893727
0.46500000357628	-14.248470517485
0.47999998927116	-13.629903901229
0.49500000476837	-13.022807046722
0.50999999046326	-12.429933957051
0.52499997615814	-11.853430664989
0.54000002145767	-11.294919259718
0.55500000715256	-10.755581675220
0.56999999284744	-10.236242152749
0.58499997854233	-9.7374275049943
0.60000002384186	-9.2594332283051
0.61500000953674	-8.8023692072456
0.62999999523163	-8.3661980041857
0.64499998092651	-7.9507736691249
0.66000002622604	-7.5558546830943
0.67500001192093	-7.1811406763298
0.68999999761581	-6.8262783453803
0.70499998331070	-6.4908758911123
0.72000002861023	-6.1745157651693
0.73500001430511	-5.8767659693579
0.75000000000000	-5.5971803941029
0.76499998569489	-5.3353136820121
0.77999997138977	-5.0907180196067
0.79500001668930	-4.8629552569405
0.81000000238419	-4.6515927282390
0.82499998807907	-4.4562106712654
0.83999997377396	-4.2764097021909
0.85500001907349	-4.1118015853389
0.87000000476837	-3.9620253957037
0.88499999046326	-3.8267403240490
0.89999997615814	-3.7056303463903
0.91500002145767	-3.5984041259617
0.93000000715256	-3.5047999230774
0.94499999284744	-3.4245827780294
0.95999997854233	-3.3575485653016
0.97500002384186	-3.3035230907594
0.99000000953674	-3.2623640471359
1.0049999952316	-3.2339595239768
1.0199999809265	-3.2182314058791
1.0349999666214	-3.2151322843035
1.0499999523163	-3.2246500355176
1.0650000572205	-3.2468023302919
1.0800000429153	-3.2816431096886
1.0950000286102	-3.3292541150309
1.1100000143051	-3.3897531517276
1.1250000000000	-3.4632905303108
1.1399999856949	-3.5500471683065
1.1549999713898	-3.6502369877046
1.1699999570847	-3.7641033698927
1.1849999427795	-3.8919211914455
1.2000000476837	-4.0339984966544
1.2150000333786	-4.1906719324966
1.2300000190735	-4.3623057966072
1.2450000047684	-4.5493009976009
1.2599999904633	-4.7520866668710
1.2749999761581	-4.9711200298863
1.2899999618530	-5.2068917323153
1.3049999475479	-5.4599298565179
1.3200000524521	-5.7307918016818
1.3350000381470	-6.0200766987352
1.3500000238419	-6.3284223092446
1.3650000095367	-6.6565143521665
1.3799999952316	-7.0050874458322
1.3949999809265	-7.3749351064055
1.4099999666214	-7.7669184796018
1.4249999523163	-8.1819763077935
1.4400000572205	-8.6211386661254
1.4550000429153	-9.0855472258772
1.4700000286102	-9.5764719251239
1.4850000143051	-10.095341821770
1.5000000000000	-10.643768801791
1.5149999856949	-11.223606787179
1.5299999713898	-11.836982879213
1.5449999570847	-12.486377536786
1.5599999427795	-13.174711261094
1.5750000476837	-13.905450950717
1.5900000333786	-14.682767582819
1.6050000190735	-15.511733820594
1.6200000047684	-16.398615530893
1.6349999904633	-17.351263985333
1.6499999761581	-18.379689275739
1.6649999618530	-19.496928313175
1.6799999475479	-20.720355736984
1.6950000524521	-22.073797911639
1.7100000381470	-23.591074881642
1.7250000238419	-25.322217837474
1.7400000095367	-27.345159786709
1.7549999952316	-29.788876519750
1.7699999809265	-32.879240458783
1.7849999666214	-36.980634398025
1.7999999523163	-41.592519755568
1.8150000572205	-40.485568246494
1.8300000429153	-36.353598089211
1.8450000286102	-33.281219001871
1.8600000143051	-31.071346030265
1.8750000000000	-29.404962141119
1.8899999856949	-28.098123339209
1.9049999713898	-27.043485189449
1.9199999570847	-26.174289016066
1.9349999427795	-25.446500488994
1.9500000476837	-24.829625632159
1.9650000333786	-24.301706035764
1.9800000190735	-23.846427088434
1.9950000047684	-23.451360259643
2.0099999904633	-23.106854913577
2.0250000953674	-22.805309564029
2.0399999618530	-22.540668248846
2.0550000667572	-22.308075005391
2.0699999332428	-22.103618346105
2.0850000381470	-21.924131945412
2.0999999046326	-21.767048283942
2.1150000095367	-21.630265934010
2.1300001144409	-21.512041961682
2.1449999809265	-21.410897783050
2.1600000858307	-21.325525075929
2.1749999523163	-21.254694732369
2.1900000572205	-21.197181430685
2.2049999237061	-21.151669588223
2.2200000286102	-21.116666655453
2.2349998950958	-21.090424170187
2.2500000000000	-21.070843372762
2.2650001049042	-21.055405188285
2.2799999713898	-21.041094629277
2.2950000762939	-21.024364664303
2.3099999427795	-21.001119664447
2.3250000476837	-20.966765856703
2.3399999141693	-20.916324631778
2.3550000190735	-20.844631148616
2.3699998855591	-20.746616571416
2.3849999904633	-20.617664857734
2.4000000953674	-20.453992519846
2.4149999618530	-20.253015665441
2.4300000667572	-20.013618086359
2.4449999332428	-19.736275592915
2.4600000381470	-19.423015970199
2.4749999046326	-19.077198351952
2.4900000095367	-18.703194756270
2.5050001144409	-18.306007132301
2.5199999809265	-17.890885664337
2.5350000858307	-17.463011697005
2.5499999523163	-17.027260033942
2.5650000572205	-16.588032694373
2.5799999237061	-16.149189311928
2.5950000286102	-15.714012808143
2.6099998950958	-15.285235525516
2.6250000000000	-14.865079100907
2.6400001049042	-14.455311992689
2.6549999713898	-14.057308085687
2.6700000762939	-13.672107389929
2.6849999427795	-13.300475500407
2.7000000476837	-12.942942572158
2.7149999141693	-12.599853336335
2.7300000190735	-12.271398950159
2.7449998855591	-11.957647542516
2.7599999904633	-11.658569193208
2.7750000953674	-11.374057276243
2.7899999618530	-11.103939663284
2.8050000667572	-10.847999961405
2.8199999332428	-10.605982385942
2.8350000381470	-10.377601372823
2.8499999046326	-10.162554555901
2.8650000095367	-9.9605182916661
2.8800001144409	-9.7711572870141
2.8949999809265	-9.5941313057996
2.9100000858307	-9.4290941430723
2.9249999523163	-9.2756939166996
2.9400000572205	-9.1335823479785
2.9549999237061	-9.0024076274779
2.9700000286102	-8.8818242228717
2.9849998950958	-8.7714820081675
3.0000000000000	-8.6710393733547
3.0150001049042	-8.5801604722848
3.0299999713898	-8.4985074115603
3.0450000762939	-8.4257541500893
3.0599999427795	-8.3615748401541
3.0750000476837	-8.3056541840086
3.0899999141693	-8.2576796383125
3.1050000190735	-8.2173492531674
3.1199998855591	-8.1843669450867
3.1349999904633	-8.1584456122652
3.1500000953674	-8.1393081168679
3.1649999618530	-8.1266863491188
3.1800000667572	-8.1203237750284
3.1949999332428	-8.1199766231359
3.2100000381470	-8.1254127929895
3.2249999046326	-8.1364163845051
3.2400000095367	-8.1527833239246
3.2550001144409	-8.1743282779817
3.2699999809265	-8.2008806648458
3.2850000858307	-8.2322902748809
3.2999999523163	-8.2684252065063
3.3150000572205	-8.3091692779858
3.3299999237061	-8.3544344693797
3.3450000286102	-8.4041437780112
3.3599998950958	-8.4582477855678
3.3750000000000	-8.5167147865959
3.3900001049042	-8.5795371989121
3.4049999713898	-8.6467236232342
3.4200000762939	-8.7183062643018
3.4349999427795	-8.7943333671868
3.4500000476837	-8.8748771776950
3.4649999141693	-8.9600208408504
3.4800000190735	-9.0498696432035
3.4949998855591	-9.1445382354419
3.5099999904633	-9.2441635173501
3.5250000953674	-9.3488853779957
3.5399999618530	-9.4588633190928
3.5550000667572	-9.5742601472917
3.5699999332428	-9.6952484350083
3.5850000381470	-9.8220126688211
3.5999999046326	-9.9547361110115
3.6150000095367	-10.093610194128
3.6300001144409	-10.238831623105
3.6449999809265	-10.390601165267
3.6600000858307	-10.549115597589
3.6749999523163	-10.714582828897
3.6900000572205	-10.887206711454
3.7049999237061	-11.067203216126
3.7200000286102	-11.254781563711
3.7349998950958	-11.450165403963
3.7500000000000	-11.653582131901
3.7650001049042	-11.865270004901
3.7799999713898	-12.085476140176
3.7950000762939	-12.314471462788
3.8099999427795	-12.552539285300
3.8250000476837	-12.799995798442
3.8399999141693	-13.057185435335
3.8550000190735	-13.324494256593
3.8699998855591	-13.602356046197
3.8849999904633	-13.891261992551
3.9000000953674	-14.191773807471
3.9149999618530	-14.504538151421
3.9300000667572	-14.830300391466
3.9449999332428	-15.169924861188
3.9600000381470	-15.524417907873
3.9749999046326	-15.894951053675
3.9900000095367	-16.282896453071
4.0050001144409	-16.689865318820
4.0199999809265	-17.117751616119
4.0349998474121	-17.568797472783
4.0500001907349	-18.045665923432
4.0650000572205	-18.551532421425
4.0799999237061	-19.090223339199
4.0949997901917	-19.666372986550
4.1100001335144	-20.285663166815
4.1250000000000	-20.955141717458
4.1399998664856	-21.683683003218
4.1550002098083	-22.482664962223
4.1700000762939	-23.367003228989
4.1849999427795	-24.356780765202
4.1999998092651	-25.479949763140
4.2150001525879	-26.777097766040
4.2300000190735	-28.310455861824
4.2449998855591	-30.182735710001
4.2600002288818	-32.582060312629
4.2750000953674	-35.913220794197
4.2899999618530	-41.330213063284
4.3049998283386	-52.886281531471
4.3200001716614	-42.858579074820
4.3350000381470	-36.694814286235
4.3499999046326	-33.080124509749
4.3649997711182	-30.529551733445
4.3800001144409	-28.562084927775
4.3949999809265	-26.963531347046
4.4099998474121	-25.620114243988
4.4250001907349	-24.464225914597
4.4400000572205	-23.452459109306
4.4549999237061	-22.555301190279
4.4699997901917	-21.751778578516
4.4850001335144	-21.026463282058
4.5000000000000	-20.367672587393
4.5149998664856	-19.766344527331
4.5300002098083	-19.215309935788
4.5450000762939	-18.708786809696
4.5599999427795	-18.242040249963
4.5749998092651	-17.811140325937
4.5900001525879	-17.412776038738
4.6050000190735	-17.044126283052
4.6199998855591	-16.702757914174
4.6350002288818	-16.386545401858
4.6500000953674	-16.093616478658
4.6649999618530	-15.822300176945
4.6799998283386	-15.571092962195
4.6950001716614	-15.338619497547
4.7100000381470	-15.123617245592
4.7249999046326	-14.924910479528
4.7399997711182	-14.741398416480
4.7550001144409	-14.572031365203
4.7699999809265	-14.415808625627
4.7849998474121	-14.271763177716
4.8000001907349	-14.138959092337
4.8150000572205	-14.016477418740
4.8299999237061	-13.903415272594
4.8449997901917	-13.798884948018
4.8600001335144	-13.702006664582
4.8750000000000	-13.611905893370
4.8899998664856	-13.527722499630
4.9050002098083	-13.448600733136
4.9200000762939	-13.373696299651
4.9349999427795	-13.302179904996
4.9499998092651	-13.233242599402
4.9650001525879	-13.166094585121
4.9800000190735	-13.099976015061
4.9949998855591	-13.034162667319
5.0100002288818	-12.967969138075
5.0250000953674	-12.900755516671
5.0399999618530	-12.831932386492
5.0549998283386	-12.760971314792
5.0700001716614	-12.687397720641
5.0850000381470	-12.610807010697
5.0999999046326	-12.530852894997
5.1149997711182	-12.447257537807
5.1300001144409	-12.359806784498
5.1449999809265	-12.268342840848
5.1599998474121	-12.172771439173
5.1750001907349	-12.073043004643
5.1900000572205	-11.969161055631
5.2049999237061	-11.861166757841
5.2199997901917	-11.749132733215
5.2350001335144	-11.633157719655
5.2500000000000	-11.513367631893
5.2649998664856	-11.389896653648
5.2800002098083	-11.262893648684
5.2950000762939	-11.132508229593
5.3099999427795	-10.998900348929
5.3249998092651	-10.862221749067
5.3400001525879	-10.722627935677
5.3550000190735	-10.580270192609
5.3699998855591	-10.435300761550
5.3850002288818	-10.287864423373
5.4000000953674	-10.138112266833
5.4149999618530	-9.9861905005359
5.4299998283386	-9.8322490536679
5.4450001716614	-9.6764455038698
5.4600000381470	-9.5189392184677
5.4749999046326	-9.3598962883075
5.4899997711182	-9.1994957904142
5.5050001144409	-9.0379182149790
5.5199999809265	-8.8753629387935
5.5349998474121	-8.7120276231399
5.5500001907349	-8.5481275019019
5.5650000572205	-8.3838822310459
5.5799999237061	-8.2195196691126
5.5949997901917	-8.0552730254466
5.6100001335144	-7.8913791493968
5.6250000000000	-7.7280778704701
5.6399998664856	-7.5656063191517
5.6550002098083	-7.4042030869800
5.6700000762939	-7.2440989524528
5.6849999427795	-7.0855248060738
5.6999998092651	-6.9286966616675
5.7150001525879	-6.7738229305931
5.7300000190735	-6.6211027744226
5.7449998855591	-6.4707208984769
5.7600002288818	-6.3228460502658
5.7750000953674	-6.1776372855010
5.7899999618530	-6.0352338595961
5.8049998283386	-5.8957566702564
5.8200001716614	-5.7593155454022
5.8350000381470	-5.6259980626432
5.8499999046326	-5.4958790436305
5.8649997711182	-5.3690148796179
5.8800001144409	-5.2454437946437
5.8949999809265	-5.1251896218405
5.9099998474121	-5.0082631649169
5.9250001907349	-4.8946535937775
5.9400000572205	-4.7843451159996
5.9549999237061	-4.6773011487395
5.9699997901917	-4.5734780977572
5.9850001335144	-4.4728175512545
6.0000000000000	-4.3752530731216
6.0149998664856	-4.2807087207514
6.0300002098083	-4.1891000184884
6.0450000762939	-4.1003372763441
6.0599999427795	-4.0143245003292
6.0749998092651	-3.9309592420117
6.0900001525879	-3.8501398661539
6.1050000190735	-3.7717599111272
6.1199998855591	-3.6957121210266
6.1350002288818	-3.6218929446070
6.1500000953674	-3.5501958160177
6.1649999618530	-3.4805204719659
6.1799998283386	-3.4127674160523
6.1950001716614	-3.3468444594304
6.2100000381470	-3.2826613126143
6.2249999046326	-3.2201374779574
6.2399997711182	-3.1591973961180
6.2550001144409	-3.0997715987021
6.2699999809265	-3.0418004772084
6.2849998474121	-2.9852303027400
6.3000001907349	-2.9300176711909
6.3150000572205	-2.8761250112488
6.3299999237061	-2.8235231342240
6.3449997901917	-2.7721893978338
6.3600001335144	-2.7221114629329
6.3750000000000	-2.6732800370519
6.3899998664856	-2.6256929909998
6.4050002098083	-2.5793552705471
6.4200000762939	-2.5342707551823
6.4349999427795	-2.4904568514075
6.4499998092651	-2.4479222033035
6.4650001525879	-2.4066851069333
6.4800000190735	-2.3667632336453
6.4949998855591	-2.3281719089035
6.5100002288818	-2.2909256960886
6.5250000953674	-2.2550419671102
6.5399999618530	-2.2205287417952
6.5549998283386	-2.1873949903573
6.5700001716614	-2.1556438222726
6.5850000381470	-2.1252748753337
6.5999999046326	-2.0962797575158
6.6149997711182	-2.0686500474519
6.6300001144409	-2.0423648050049
6.6449999809265	-2.0173981161071
6.6599998474121	-1.9937231453756
6.6750001907349	-1.9712991919627
6.6900000572205	-1.9500838636150
6.7049999237061	-1.9300272204047
6.7199997901917	-1.9110723042815
6.7350001335144	-1.8931635165283
6.7500000000000	-1.8762303280329
6.7649998664856	-1.8602081025035
6.7800002098083	-1.8450203503921
6.7950000762939	-1.8305958706184
6.8099999427795	-1.8168561065026
6.8249998092651	-1.8037257176723
6.8400001525879	-1.7911275600407
6.8550000190735	-1.7789880138716
6.8699998855591	-1.7672361112975
6.8850002288818	-1.7558014245088
6.9000000953674	-1.7446200535863
6.9149999618530	-1.7336332676522
6.9299998283386	-1.7227896907010
6.9450001716614	-1.7120423497566
6.9600000381470	-1.7013526252773
6.9749999046326	-1.6906901144142
6.9899997711182	-1.6800342165715
7.0050001144409	-1.6693697839233
7.0199999809265	-1.6586910266759
7.0349998474121	-1.6480006482672
7.0500001907349	-1.6373084334673
7.0650000572205	-1.6266329028722
7.0799999237061	-1.6159984114841
7.0949997901917	-1.6054350236623
7.1100001335144	-1.5949793461096
7.1250000000000	-1.5846729276315
7.1399998664856	-1.5745584001403
7.1550002098083	-1.5646801506869
7.1700000762939	-1.5550874391211
7.1849999427795	-1.5458260838368
7.1999998092651	-1.5369463305227
7.2150001525879	-1.5284895239168
7.2300000190735	-1.5204983594137
7.2449998855591	-1.5130098142525
7.2600002288818	-1.5060570989365
7.2750000953674	-1.4996680354630
7.2899999618530	-1.4938641373604
7.3049998283386	-1.4886606332974
7.3200001716614	-1.4840635878597
7.3350000381470	-1.4800739160212
7.3499999046326	-1.4766851341813
7.3649997711182	-1.4738813868456
7.3800001144409	-1.4716405066809
7.3949999809265	-1.4699337280215
7.4099998474121	-1.4687251688176
7.4250001907349	-1.4679712887006
7.4400000572205	-1.4676254235969
7.4549999237061	-1.4676355218060
7.4699997901917	-1.4679459041302
7.4850001335144	-1.4684977920746
7.5000000000000	-1.4692284664216
7.5149998664856	-1.4700789435848
7.5300002098083	-1.4709872457926
7.5450000762939	-1.4718933330260
7.5599999427795	-1.4727428483017
7.5749998092651	-1.4734799049464
7.5900001525879	-1.4740575096768
7.6050000190735	-1.4744326632746
7.6199998855591	-1.4745683805543
7.6350002288818	-1.4744361547425
7.6500000953674	-1.4740140758733
7.6649999618530	-1.4732869212910
7.6799998283386	-1.4722496430318
7.6950001716614	-1.4709049920105
7.7100000381470	-1.4692641231267
7.7249999046326	-1.4673451253883
7.7399997711182	-1.4651730288379
7.7550001144409	-1.4627818335755
7.7699999809265	-1.4602093311173
7.7849998474121	-1.4574979029661
7.8000001907349	-1.4546965443628
7.8150000572205	-1.4518566177695
7.8299999237061	-1.4490315893227
7.8449997901917	-1.4462745264379
7.8600001335144	-1.4436401778214
7.8750000000000	-1.4411796310351
7.8899998664856	-1.4389457042860
7.9050002098083	-1.4369820264724
7.9200000762939	-1.4353320459934
7.9349999427795	-1.4340341415112
7.9499998092651	-1.4331173329639
7.9650001525879	-1.4326059684274
7.9800000190735	-1.4325192782963
7.9949998855591	-1.4328634767184
8.0100002288818	-1.4336436881272
8.0249996185303	-1.4348504757752
8.0399999618530	-1.4364686075417
8.0550003051758	-1.4384810694874
8.0699996948242	-1.4408546170494
8.0850000381470	-1.4435540624697
8.1000003814697	-1.4465373970162
8.1149997711182	-1.4497580282095
8.1300001144409	-1.4531644525297
8.1450004577637	-1.4566996126457
8.1599998474121	-1.4603063072272
8.1750001907349	-1.4639273547587
8.1899995803833	-1.4675002079736
8.2049999237061	-1.4709698971989
8.2200002670288	-1.4742804739506
8.2349996566772	-1.4773762679207
8.2500000000000	-1.4802130305752
8.2650003433228	-1.4827455199940
8.2799997329712	-1.4849393363834
8.2950000762939	-1.4867640587747
8.3100004196167	-1.4881970852534
8.3249998092651	-1.4892262376151
8.3400001525879	-1.4898460592045
8.3549995422363	-1.4900583757404
8.3699998855591	-1.4898767399318
8.3850002288818	-1.4893183121928
8.3999996185303	-1.4884131549074
8.4149999618530	-1.4871939282700
8.4300003051758	-1.4857014868896
8.4449996948242	-1.4839808963518
8.4600000381470	-1.4820854227133
8.4750003814697	-1.4800677916628
8.4899997711182	-1.4779837813705
8.5050001144409	-1.4758915763165
8.5200004577637	-1.4738489753072
8.5349998474121	-1.4719098239152
8.5500001907349	-1.4701299833211
8.5649995803833	-1.4685589451054
8.5799999237061	-1.4672409213467
8.5950002670288	-1.4662171009777
8.6099996566772	-1.4655196397410
8.6250000000000	-1.4651753921688
