#Parameters = {er=9.467360292; tanD=0.508747541; PHANUP=14; a=0.95; b=0.5; c=1; d=1; gl=0; gw=30; l=8.5; l1=11; l2=13; mt=0.018; r=14; s=2; sf=1; sf1=1; sgl=2; sgw=2; sl=53; sl1=60; slotl=-2; slotw=1; sls=0; stripl=15; stripw=0.5; sw=30; t=0.13; w=1}
#"Frequency / GHz"	"S1,1 (54) [Magnitude]"
#-----------------------------------------
0.0000000000000	-35.134460644753
0.014999999664724	-34.661584185374
0.029999999329448	-33.499702936648
0.045000001788139	-32.087434416856
0.059999998658895	-30.693659312313
0.075000002980232	-29.420364350446
0.090000003576279	-28.289998510247
0.10499999672174	-27.296030075972
0.11999999731779	-26.423457296967
0.13500000536442	-25.656061540822
0.15000000596046	-24.978611633134
0.16500000655651	-24.377278412291
0.18000000715256	-23.839442972384
0.19499999284744	-23.353349627773
0.20999999344349	-22.907783917512
0.22499999403954	-22.491814496398
0.23999999463558	-22.094677323428
0.25499999523163	-21.705804915357
0.27000001072884	-21.315031434002
0.28499999642372	-20.912943679263
0.30000001192093	-20.491377448632
0.31499999761581	-20.043930758456
0.33000001311302	-19.566407108973
0.34499999880791	-19.057055642346
0.36000001430511	-18.516565232759
0.37500000000000	-17.947755906339
0.38999998569489	-17.355089086356
0.40500000119209	-16.744061065191
0.41999998688698	-16.120616766617
0.43500000238419	-15.490659891570
0.44999998807907	-14.859695186076
0.46500000357628	-14.232609467271
0.47999998927116	-13.613578301741
0.49500000476837	-13.006049055004
0.50999999046326	-12.412784457673
0.52499997615814	-11.835933769769
0.54000002145767	-11.277127767307
0.55500000715256	-10.737546168507
0.56999999284744	-10.218011021550
0.58499997854233	-9.7190513522742
0.60000002384186	-9.2409594540599
0.61500000953674	-8.7838412452465
0.62999999523163	-8.3476601911854
0.64499998092651	-7.9322645498392
0.66000002622604	-7.5374128864733
0.67500001192093	-7.1627998710660
0.68999999761581	-6.8080702186924
0.70499998331070	-6.4728310115907
0.72000002861023	-6.1566615971205
0.73500001430511	-5.8591253385591
0.75000000000000	-5.5797803578521
0.76499998569489	-5.3181749588041
0.77999997138977	-5.0738604587029
0.79500001668930	-4.8463969520437
0.81000000238419	-4.6353493481479
0.82499998807907	-4.4403011317834
0.83999997377396	-4.2608465725083
0.85500001907349	-4.0966009743813
0.87000000476837	-3.9472029323924
0.88499999046326	-3.8123095182066
0.89999997615814	-3.6916006815043
0.91500002145767	-3.5847938350592
0.93000000715256	-3.4916217454586
0.94499999284744	-3.4118512126576
0.95999997854233	-3.3452786845101
0.97500002384186	-3.2917326244544
0.99000000953674	-3.2510690806117
1.0049999952316	-3.2231799960318
1.0199999809265	-3.2079879496915
1.0349999666214	-3.2054461547646
1.0499999523163	-3.2155460422408
1.0650000572205	-3.2383075900495
1.0800000429153	-3.2737842196561
1.0950000286102	-3.3220646721363
1.1100000143051	-3.3832668890450
1.1250000000000	-3.4575422076784
1.1399999856949	-3.5450785125526
1.1549999713898	-3.6460903049873
1.1699999570847	-3.7608244645887
1.1849999427795	-3.8895625805637
1.2000000476837	-4.0326116716128
1.2150000333786	-4.1903140531445
1.2300000190735	-4.3630412220848
1.2450000047684	-4.5511952702811
1.2599999904633	-4.7552069313596
1.2749999761581	-4.9755441297004
1.2899999618530	-5.2127000122571
1.3049999475479	-5.4672038553477
1.3200000524521	-5.7396240475306
1.3350000381470	-6.0305621939468
1.3500000238419	-6.3406621768007
1.3650000095367	-6.6706157107632
1.3799999952316	-7.0211633080300
1.3949999809265	-7.3931071815805
1.4099999666214	-7.7873128903975
1.4249999523163	-8.2047312115374
1.4400000572205	-8.6463969989210
1.4550000429153	-9.1134652297114
1.4700000286102	-9.6072130020562
1.4850000143051	-10.129080589963
1.5000000000000	-10.680696489771
1.5149999856949	-11.263922296412
1.5299999713898	-11.880904298713
1.5449999570847	-12.534139082796
1.5599999427795	-13.226563541179
1.5750000476837	-13.961661543195
1.5900000333786	-14.743625163417
1.6050000190735	-15.577544902180
1.6200000047684	-16.469702674104
1.6349999904633	-17.427954743988
1.6499999761581	-18.462310262457
1.6649999618530	-19.585767141431
1.6799999475479	-20.815597386967
1.6950000524521	-22.175389088952
1.7100000381470	-23.698408314756
1.7250000238419	-25.433391253588
1.7400000095367	-27.454960529632
1.7549999952316	-29.882573453583
1.7699999809265	-32.909383159798
1.7849999666214	-36.760434209892
1.7999999523163	-40.514499742180
1.8150000572205	-39.462022025197
1.8300000429153	-35.938544123084
1.8450000286102	-33.117757436843
1.8600000143051	-31.025313052093
1.8750000000000	-29.426389311310
1.8899999856949	-28.164912728923
1.9049999713898	-27.144471609786
1.9199999570847	-26.303260855994
1.9349999427795	-25.599739922637
1.9500000476837	-25.004771363161
1.9650000333786	-24.497166997802
1.9800000190735	-24.061058649124
1.9950000047684	-23.684271075683
2.0099999904633	-23.357289878749
2.0250000953674	-23.072568130993
2.0399999618530	-22.824051220397
2.0550000667572	-22.606851071635
2.0699999332428	-22.416991994947
2.0850000381470	-22.251227214268
2.0999999046326	-22.106887876910
2.1150000095367	-21.981757861395
2.1300001144409	-21.873960481868
2.1449999809265	-21.781862436324
2.1600000858307	-21.703974178436
2.1749999523163	-21.638861337328
2.1900000572205	-21.585050533594
2.2049999237061	-21.540935753517
2.2200000286102	-21.504694051264
2.2349998950958	-21.474190219952
2.2500000000000	-21.446899360624
2.2650001049042	-21.419842881992
2.2799999713898	-21.389539771007
2.2950000762939	-21.352002104577
2.3099999427795	-21.302784972142
2.3250000476837	-21.237096061540
2.3399999141693	-21.149991361234
2.3550000190735	-21.036652672689
2.3699998855591	-20.892719198658
2.3849999904633	-20.714651241725
2.4000000953674	-20.500074444946
2.4149999618530	-20.248017552559
2.4300000667572	-19.959036687016
2.4449999332428	-19.635158217792
2.4600000381470	-19.279671307436
2.4749999046326	-18.896834294570
2.4900000095367	-18.491500306588
2.5050001144409	-18.068761266433
2.5199999809265	-17.633653876214
2.5350000858307	-17.190922257002
2.5499999523163	-16.744864117534
2.5650000572205	-16.299258249811
2.5799999237061	-15.857331028033
2.5950000286102	-15.421780881177
2.6099998950958	-14.994807186946
2.6250000000000	-14.578173159042
2.6400001049042	-14.173256626644
2.6549999713898	-13.781107439238
2.6700000762939	-13.402501045918
2.6849999427795	-13.037986610060
2.7000000476837	-12.687926718902
2.7149999141693	-12.352531024682
2.7300000190735	-12.031884791567
2.7449998855591	-11.725976646077
2.7599999904633	-11.434713832912
2.7750000953674	-11.157945031711
2.7899999618530	-10.895462867542
2.8050000667572	-10.647027537313
2.8199999332428	-10.412368828963
2.8350000381470	-10.191189404856
2.8499999046326	-9.9831772163140
2.8650000095367	-9.7880093788098
2.8800001144409	-9.6053515319686
2.8949999809265	-9.4348648098158
2.9100000858307	-9.2762047628358
2.9249999523163	-9.1290259605279
2.9400000572205	-8.9929847197067
2.9549999237061	-8.8677333264345
2.9700000286102	-8.7529325447581
2.9849998950958	-8.6482394465577
3.0000000000000	-8.5533165020569
3.0150001049042	-8.4678305832079
3.0299999713898	-8.3914519935985
3.0450000762939	-8.3238557906348
3.0599999427795	-8.2647224651343
3.0750000476837	-8.2137369022498
3.0899999141693	-8.1705905446473
3.1050000190735	-8.1349827247152
3.1199998855591	-8.1066181980390
3.1349999904633	-8.0852100399278
3.1500000953674	-8.0704820393477
3.1649999618530	-8.0621638708838
3.1800000667572	-8.0599986061661
3.1949999332428	-8.0637410124336
3.2100000381470	-8.0731570636711
3.2249999046326	-8.0880266929782
3.2400000095367	-8.1081441370430
3.2550001144409	-8.1333221592691
3.2699999809265	-8.1633882375882
3.2850000858307	-8.1981863787966
3.2999999523163	-8.2375845451349
3.3150000572205	-8.2814652859186
3.3299999237061	-8.3297345548779
3.3450000286102	-8.3823184532944
3.3599998950958	-8.4391676806100
3.3750000000000	-8.5002467249324
3.3900001049042	-8.5655505791899
3.4049999713898	-8.6350918286989
3.4200000762939	-8.7089010991619
3.4349999427795	-8.7870361727886
3.4500000476837	-8.8695667127701
3.4649999141693	-8.9565864274237
3.4800000190735	-9.0482046885443
3.4949998855591	-9.1445456899739
3.5099999904633	-9.2457514522944
3.5250000953674	-9.3519744880111
3.5399999618530	-9.4633816608644
3.5550000667572	-9.5801481005779
3.5699999332428	-9.7024607883158
3.5850000381470	-9.8305131325150
3.5999999046326	-9.9645044869863
3.6150000095367	-10.104639468957
3.6300001144409	-10.251132839593
3.6449999809265	-10.404198200662
3.6600000858307	-10.564054106932
3.6749999523163	-10.730922373899
3.6900000572205	-10.905031621199
3.7049999237061	-11.086613997122
3.7200000286102	-11.275903253799
3.7349998950958	-11.473145271893
3.7500000000000	-11.678592119555
3.7650001049042	-11.892507197311
3.7799999713898	-12.115169927713
3.7950000762939	-12.346875649162
3.8099999427795	-12.587946908840
3.8250000476837	-12.838728166480
3.8399999141693	-13.099605070890
3.8550000190735	-13.371002685409
3.8699998855591	-13.653399827620
3.8849999904633	-13.947334529310
3.9000000953674	-14.253423075754
3.9149999618530	-14.572370183175
3.9300000667572	-14.904984988568
3.9449999332428	-15.252206267202
3.9600000381470	-15.615121960067
3.9749999046326	-15.995000399843
3.9900000095367	-16.393323601261
4.0050001144409	-16.811832336963
4.0199999809265	-17.252575989311
4.0349998474121	-17.717983284293
4.0500001907349	-18.210945946991
4.0650000572205	-18.734925858821
4.0799999237061	-19.294106084746
4.0949997901917	-19.893586202818
4.1100001335144	-20.539656598100
4.1250000000000	-21.240177802083
4.1399998664856	-22.005140014235
4.1550002098083	-22.847496874937
4.1700000762939	-23.784449561655
4.1849999427795	-24.839539101985
4.1999998092651	-26.046213823485
4.2150001525879	-27.454312176702
4.2300000190735	-29.142974707466
4.2449998855591	-31.249358742950
4.2600002288818	-34.044178628768
4.2750000953674	-38.190570609657
4.2899999618530	-46.208245220458
4.3049998283386	-49.320452793641
4.3200001716614	-39.376898802509
4.3350000381470	-34.746879995414
4.3499999046326	-31.735432709392
4.3649997711182	-29.505619670952
4.3800001144409	-27.737866651757
4.3949999809265	-26.276275232685
4.4099998474121	-25.033145833846
4.4250001907349	-23.954274365842
4.4400000572205	-23.003833395877
4.4549999237061	-22.156925708355
4.4699997901917	-21.395543723144
4.4850001335144	-20.706258085217
4.5000000000000	-20.078771385419
4.5149998664856	-19.505028100659
4.5300002098083	-18.978587613584
4.5450000762939	-18.494226882414
4.5599999427795	-18.047638719062
4.5749998092651	-17.635222174557
4.5900001525879	-17.253930358549
4.6050000190735	-16.901153271974
4.6199998855591	-16.574624255003
4.6350002288818	-16.272362738714
4.6500000953674	-15.992608140897
4.6649999618530	-15.733783074677
4.6799998283386	-15.494458255741
4.6950001716614	-15.273328178865
4.7100000381470	-15.069182034592
4.7249999046326	-14.880885337244
4.7399997711182	-14.707368864507
4.7550001144409	-14.547612100896
4.7699999809265	-14.400634954397
4.7849998474121	-14.265483033656
4.8000001907349	-14.141229626862
4.8150000572205	-14.026954332821
4.8299999237061	-13.921758606594
4.8449997901917	-13.824744530454
4.8600001335144	-13.735020855872
4.8750000000000	-13.651701468462
4.8899998664856	-13.573909229732
4.9050002098083	-13.500769546045
4.9200000762939	-13.431417770086
4.9349999427795	-13.365002764087
4.9499998092651	-13.300691404829
4.9650001525879	-13.237674564831
4.9800000190735	-13.175175473766
4.9949998855591	-13.112452046448
5.0100002288818	-13.048804196279
5.0250000953674	-12.983582911455
5.0399999618530	-12.916198944998
5.0549998283386	-12.846119906588
5.0700001716614	-12.772886155227
5.0850000381470	-12.696098973432
5.0999999046326	-12.615436888346
5.1149997711182	-12.530645479077
5.1300001144409	-12.441538397361
5.1449999809265	-12.347998497152
5.1599998474121	-12.249964224705
5.1750001907349	-12.147432284104
5.1900000572205	-12.040442541040
5.2049999237061	-11.929079560566
5.2199997901917	-11.813463449329
5.2350001335144	-11.693733894602
5.2500000000000	-11.570053129424
5.2649998664856	-11.442597083108
5.2800002098083	-11.311548771419
5.2950000762939	-11.177091386100
5.3099999427795	-11.039411782721
5.3249998092651	-10.898691798458
5.3400001525879	-10.755110094071
5.3550000190735	-10.608836544832
5.3699998855591	-10.460041870674
5.3850002288818	-10.308889656143
5.4000000953674	-10.155538502387
5.4149999618530	-10.000146924674
5.4299998283386	-9.8428804790914
5.4450001716614	-9.6838979228066
5.4600000381470	-9.5233663232595
5.4749999046326	-9.3614563843997
5.4899997711182	-9.1983516295404
5.5050001144409	-9.0342373686438
5.5199999809265	-8.8693087174833
5.5349998474121	-8.7037713193960
5.5500001907349	-8.5378332698082
5.5650000572205	-8.3717209111242
5.5799999237061	-8.2056532986036
5.5949997901917	-8.0398660116805
5.6100001335144	-7.8745901524389
5.6250000000000	-7.7100624005515
5.6399998664856	-7.5465187202159
5.6550002098083	-7.3841915749580
5.6700000762939	-7.2233074935295
5.6849999427795	-7.0640859484809
5.6999998092651	-6.9067458863486
5.7150001525879	-6.7514855376531
5.7300000190735	-6.5984957043119
5.7449998855591	-6.4479574583761
5.7600002288818	-6.3000332927437
5.7750000953674	-6.1548734017471
5.7899999618530	-6.0126088733127
5.8049998283386	-5.8733562625477
5.8200001716614	-5.7372176603831
5.8350000381470	-5.6042734738192
5.8499999046326	-5.4745920803274
5.8649997711182	-5.3482218278442
5.8800001144409	-5.2251938628376
5.8949999809265	-5.1055295014588
5.9099998474121	-4.9892259247597
5.9250001907349	-4.8762750007604
5.9400000572205	-4.7666471234972
5.9549999237061	-4.6603036087332
5.9699997901917	-4.5571938918073
5.9850001335144	-4.4572554372832
6.0000000000000	-4.3604158701942
6.0149998664856	-4.2665940101850
6.0300002098083	-4.1757035593564
6.0450000762939	-4.0876456149352
6.0599999427795	-4.0023244062853
6.0749998092651	-3.9196315676987
6.0900001525879	-3.8394638286331
6.1050000190735	-3.7617105292003
6.1199998855591	-3.6862641825678
6.1350002288818	-3.6130175217347
6.1500000953674	-3.5418617008872
6.1649999618530	-3.4726966590517
6.1799998283386	-3.4054225823497
6.1950001716614	-3.3399444238142
6.2100000381470	-3.2761755690252
6.2249999046326	-3.2140328570528
6.2399997711182	-3.1534425311252
6.2550001144409	-3.0943360701400
6.2699999809265	-3.0366553995339
6.2849998474121	-2.9803518281477
6.3000001907349	-2.9253790244262
6.3150000572205	-2.8717046798732
6.3299999237061	-2.8193004365002
6.3449997901917	-2.7681494334400
6.3600001335144	-2.7182378619291
6.3750000000000	-2.6695638068526
6.3899998664856	-2.6221231491513
6.4050002098083	-2.5759273543557
6.4200000762939	-2.5309828083348
6.4349999427795	-2.4873044399764
6.4499998092651	-2.4449091378299
6.4650001525879	-2.4038130794405
6.4800000190735	-2.3640386311886
6.4949998855591	-2.3256014449528
6.5100002288818	-2.2885183846738
6.5250000953674	-2.2528051409552
6.5399999618530	-2.2184709234843
6.5549998283386	-2.1855282002228
6.5700001716614	-2.1539769002494
6.5850000381470	-2.1238175447147
6.5999999046326	-2.0950411342163
6.6149997711182	-2.0676362885531
6.6300001144409	-2.0415821225959
6.6449999809265	-2.0168546847825
6.6599998474121	-1.9934194570218
6.6750001907349	-1.9712380378334
6.6900000572205	-1.9502636088783
6.7049999237061	-1.9304436117387
6.7199997901917	-1.9117240516395
6.7350001335144	-1.8940401208442
6.7500000000000	-1.8773235117705
6.7649998664856	-1.8615059395292
6.7800002098083	-1.8465081115883
6.7950000762939	-1.8322574380786
6.8099999427795	-1.8186745478452
6.8249998092651	-1.8056806894501
6.8400001525879	-1.7931998993417
6.8550000190735	-1.7811559168952
6.8699998855591	-1.7694755124478
6.8850002288818	-1.7580917518317
6.9000000953674	-1.7469384543706
6.9149999618530	-1.7359579520933
6.9299998283386	-1.7250992742145
6.9450001716614	-1.7143173738245
6.9600000381470	-1.7035754259725
6.9749999046326	-1.6928451836604
6.9899997711182	-1.6821054915773
7.0050001144409	-1.6713458699418
7.0199999809265	-1.6605637877784
7.0349998474121	-1.6497632165934
7.0500001907349	-1.6389589050652
7.0650000572205	-1.6281706862990
7.0799999237061	-1.6174249684700
7.0949997901917	-1.6067589201907
7.1100001335144	-1.5962091666708
7.1250000000000	-1.5858176971731
7.1399998664856	-1.5756335576736
7.1550002098083	-1.5657024416336
7.1700000762939	-1.5560756767355
7.1849999427795	-1.5468000651836
7.1999998092651	-1.5379258908399
7.2150001525879	-1.5294967011848
7.2300000190735	-1.5215551523127
7.2449998855591	-1.5141401148034
7.2600002288818	-1.5072819903240
7.2750000953674	-1.5010104404479
7.2899999618530	-1.4953421327436
7.3049998283386	-1.4902930684855
7.3200001716614	-1.4858677164179
7.3350000381470	-1.4820627454862
7.3499999046326	-1.4788706327747
7.3649997711182	-1.4762726657805
7.3800001144409	-1.4742429227772
7.3949999809265	-1.4727495004178
7.4099998474121	-1.4717525635050
7.4250001907349	-1.4712063810213
7.4400000572205	-1.4710619877788
7.4549999237061	-1.4712614993911
7.4699997901917	-1.4717462152648
7.4850001335144	-1.4724536783846
7.5000000000000	-1.4733230002813
7.5149998664856	-1.4742868795891
7.5300002098083	-1.4752829257142
7.5450000762939	-1.4762517702399
7.5599999427795	-1.4771345763579
7.5749998092651	-1.4778757856943
7.5900001525879	-1.4784284508465
7.6050000190735	-1.4787474193035
7.6199998855591	-1.4787980379690
7.6350002288818	-1.4785523676351
7.6500000953674	-1.4779897695146
7.6649999618530	-1.4770972710243
7.6799998283386	-1.4758738368757
7.6950001716614	-1.4743212968361
7.7100000381470	-1.4724559495628
7.7249999046326	-1.4702986172453
7.7399997711182	-1.4678782488268
7.7550001144409	-1.4652314102853
7.7699999809265	-1.4623992087296
7.7849998474121	-1.4594303164491
7.8000001907349	-1.4563740051467
7.8150000572205	-1.4532884979860
7.8299999237061	-1.4502266423057
7.8449997901917	-1.4472467800265
7.8600001335144	-1.4444055977274
7.8750000000000	-1.4417571408662
7.8899998664856	-1.4393536148745
7.9050002098083	-1.4372449164414
7.9200000762939	-1.4354732303590
7.9349999427795	-1.4340770793261
7.9499998092651	-1.4330843944302
7.9650001525879	-1.4325230943135
7.9800000190735	-1.4324093570867
7.9949998855591	-1.4327482882837
8.0100002288818	-1.4335423511309
8.0249996185303	-1.4347831705067
8.0399999618530	-1.4364544296462
8.0550003051758	-1.4385307659951
8.0699996948242	-1.4409812683971
8.0850000381470	-1.4437674661855
8.1000003814697	-1.4468425172685
8.1149997711182	-1.4501580843444
8.1300001144409	-1.4536564746892
8.1450004577637	-1.4572824792486
8.1599998474121	-1.4609732762050
8.1750001907349	-1.4646669119463
8.1899995803833	-1.4683029327875
8.2049999237061	-1.4718204747021
8.2200002670288	-1.4751606714783
8.2349996566772	-1.4782697786976
8.2500000000000	-1.4810981992507
8.2650003433228	-1.4836019653213
8.2799997329712	-1.4857474733369
8.2950000762939	-1.4874987234002
8.3100004196167	-1.4888402896027
8.3249998092651	-1.4897558718638
8.3400001525879	-1.4902432522774
8.3549995422363	-1.4903040611328
8.3699998855591	-1.4899537035345
8.3850002288818	-1.4892123244062
8.3999996185303	-1.4881091543435
8.4149999618530	-1.4866855657119
8.4300003051758	-1.4849797687747
8.4449996948242	-1.4830424745286
8.4600000381470	-1.4809262042189
8.4750003814697	-1.4786878129811
8.4899997711182	-1.4763875008783
8.5050001144409	-1.4740833243191
8.5200004577637	-1.4718356342406
8.5349998474121	-1.4697029069692
8.5500001907349	-1.4677394573641
8.5649995803833	-1.4659968089724
8.5799999237061	-1.4645216644812
8.5950002670288	-1.4633543519369
8.6099996566772	-1.4625285800774
8.6250000000000	-1.4620704127520
