#Parameters = {er=9.362656589; tanD=0.511045909; PHANUP=14; a=0.95; b=0.5; c=1; d=1; gl=0; gw=30; l=8.5; l1=11; l2=13; mt=0.018; r=14; s=2; sf=1; sf1=1; sgl=2; sgw=2; sl=53; sl1=60; slotl=-2; slotw=1; sls=0; stripl=15; stripw=0.5; sw=30; t=0.13; w=1}
#"Frequency / GHz"	"S1,1 (37) [Magnitude]"
#-----------------------------------------
0.0000000000000	-35.140463112046
0.014999999664724	-34.668262506129
0.029999999329448	-33.507746198142
0.045000001788139	-32.096678671711
0.059999998658895	-30.703718824342
0.075000002980232	-29.430918658937
0.090000003576279	-28.300818136510
0.10499999672174	-27.306955479903
0.11999999731779	-26.434375311899
0.13500000536442	-25.666882115505
0.15000000596046	-24.989264338666
0.16500000655651	-24.387698359060
0.18000000715256	-23.849574765367
0.19499999284744	-23.363145885708
0.20999999344349	-22.917198694699
0.22499999403954	-22.500814686936
0.23999999463558	-22.103235797510
0.25499999523163	-21.713913414918
0.27000001072884	-21.322693828771
0.28499999642372	-20.920185667972
0.30000001192093	-20.498246704682
0.31499999761581	-20.050490498189
0.33000001311302	-19.572734594133
0.34499999880791	-19.063238132066
0.36000001430511	-18.522687515964
0.37500000000000	-17.953899301546
0.38999998569489	-17.361323803043
0.40500000119209	-16.750440130150
0.41999998688698	-16.127179529670
0.43500000238419	-15.497428663332
0.44999998807907	-14.866678786842
0.46500000357628	-14.239809097800
0.47999998927116	-13.620983854343
0.49500000476837	-13.013646868155
0.50999999046326	-12.420554947004
0.52499997615814	-11.843859116520
0.54000002145767	-11.285181115319
0.55500000715256	-10.745707220131
0.56999999284744	-10.226256777411
0.58499997854233	-9.7273597254181
0.60000002384186	-9.2493094114777
0.61500000953674	-8.7922133038895
0.62999999523163	-8.3560355376642
0.64499998092651	-7.9406233841899
0.66000002622604	-7.5457407174571
0.67500001192093	-7.1710813730461
0.68999999761581	-6.8162910751151
0.70499998331070	-6.4809754942918
0.72000002861023	-6.1647197125121
0.73500001430511	-5.8670860431545
0.75000000000000	-5.5876333742844
0.76499998569489	-5.3259098220839
0.77999997138977	-5.0814671727865
0.79500001668930	-4.8538690779168
0.81000000238419	-4.6426781266524
0.82499998807907	-4.4474799023773
0.83999997377396	-4.2678677509339
0.85500001907349	-4.1034594863401
0.87000000476837	-3.9538920946539
0.88499999046326	-3.8188203912329
0.89999997615814	-3.6979321217085
0.91500002145767	-3.5909358410335
0.93000000715256	-3.4975691915078
0.94499999284744	-3.4175982659441
0.95999997854233	-3.3508176651655
0.97500002384186	-3.2970559069646
0.99000000953674	-3.2561686628830
1.0049999952316	-3.2280477898994
1.0199999809265	-3.2126145130656
1.0349999666214	-3.2098221391324
1.0499999523163	-3.2196593898134
1.0650000572205	-3.2421457998433
1.0800000429153	-3.2773353381585
1.0950000286102	-3.3253138140109
1.1100000143051	-3.3861993985275
1.1250000000000	-3.4601429678096
1.1399999856949	-3.5473270908976
1.1549999713898	-3.6479674081121
1.1699999570847	-3.7623093929690
1.1849999427795	-3.8906318129713
1.2000000476837	-4.0332428330555
1.2150000333786	-4.1904795247717
1.2300000190735	-4.3627137118581
1.2450000047684	-4.5503435121247
1.2599999904633	-4.7537998721959
1.2749999761581	-4.9735472658508
1.2899999618530	-5.2100765098887
1.3049999475479	-5.4639166827404
1.3200000524521	-5.7356319085827
1.3350000381470	-6.0258206150158
1.3500000238419	-6.3351254763907
1.3650000095367	-6.6642352855045
1.3799999952316	-7.0138874632057
1.3949999809265	-7.3848801814930
1.4099999666214	-7.7780772882879
1.4249999523163	-8.1944240001089
1.4400000572205	-8.6349549796858
1.4550000429153	-9.1008139676749
1.4700000286102	-9.5932797222077
1.4850000143051	-10.113785858111
1.5000000000000	-10.663952723865
1.5149999856949	-11.245638410694
1.5299999713898	-11.860979637574
1.5449999570847	-12.512470783198
1.5599999427795	-13.203036297480
1.5750000476837	-13.936154666699
1.5900000333786	-14.716007145719
1.6050000190735	-15.547679102236
1.6200000047684	-16.437444873630
1.6349999904633	-17.393161910880
1.6499999761581	-18.424843240942
1.6649999618530	-19.545505314770
1.6799999475479	-20.772478265313
1.6950000524521	-22.129476965600
1.7100000381470	-23.650046708306
1.7250000238419	-25.383575632132
1.7400000095367	-27.406331023975
1.7549999952316	-29.842434733278
1.7699999809265	-32.900843821389
1.7849999666214	-36.871402423814
1.7999999523163	-41.001600269695
1.8150000572205	-39.919654959420
1.8300000429153	-36.130954674164
1.8450000286102	-33.195417341121
1.8600000143051	-31.048522383694
1.8750000000000	-29.418136868036
1.8899999856949	-28.135467919411
1.9049999713898	-27.099045607091
1.9199999570847	-26.244759269577
1.9349999427795	-25.529901750256
1.9500000476837	-24.924701126875
1.9650000333786	-24.407607723008
1.9800000190735	-23.962543145550
1.9950000047684	-23.577215382873
2.0099999904633	-23.242045908313
2.0250000953674	-22.949463434484
2.0399999618530	-22.693412406973
2.0550000667572	-22.469024063605
2.0699999332428	-22.272353302793
2.0850000381470	-22.100195931976
2.0999999046326	-21.949932589826
2.1150000095367	-21.819402901885
2.1300001144409	-21.706797109850
2.1449999809265	-21.610559226114
2.1600000858307	-21.529287499038
2.1749999523163	-21.461648131447
2.1900000572205	-21.406287991726
2.2049999237061	-21.361738668295
2.2200000286102	-21.326337776086
2.2349998950958	-21.298129107666
2.2500000000000	-21.274788563773
2.2650001049042	-21.253548135313
2.2799999713898	-21.231134826551
2.2950000762939	-21.203749792390
2.3099999427795	-21.167090873552
2.3250000476837	-21.116425244725
2.3399999141693	-21.046753968164
2.3550000190735	-20.953049329599
2.3699998855591	-20.830578550423
2.3849999904633	-20.675265962548
2.4000000953674	-20.484054890442
2.4149999618530	-20.255225994030
2.4300000667572	-19.988580184170
2.4449999332428	-19.685468170261
2.4600000381470	-19.348650460321
2.4749999046326	-18.982028371506
2.4900000095367	-18.590289942165
2.5050001144409	-18.178525815682
2.5199999809265	-17.751907526285
2.5350000858307	-17.315393047874
2.5499999523163	-16.873554794874
2.5650000572205	-16.430460259605
2.5799999237061	-15.989618048501
2.5950000286102	-15.553983932386
2.6099998950958	-15.125995171929
2.6250000000000	-14.707612159862
2.6400001049042	-14.300382541437
2.6549999713898	-13.905494930266
2.6700000762939	-13.523843209850
2.6849999427795	-13.156064207077
2.7000000476837	-12.802595994395
2.7149999141693	-12.463703000472
2.7300000190735	-12.139517934983
2.7449998855591	-11.830061753448
2.7599999904633	-11.535270425056
2.7750000953674	-11.255008080977
2.7899999618530	-10.989086144813
2.8050000667572	-10.737270951199
2.8199999332428	-10.499300321477
2.8350000381470	-10.274881768202
2.8499999046326	-10.063705905328
2.8650000095367	-9.8654509637576
2.8800001144409	-9.6797791092243
2.8949999809265	-9.5063530712447
2.9100000858307	-9.3448272432120
2.9249999523163	-9.1948541016375
2.9400000572205	-9.0560843700494
2.9549999237061	-8.9281709751909
2.9700000286102	-8.8107711419563
2.9849998950958	-8.7035386250009
3.0000000000000	-8.6061353749045
3.0150001049042	-8.5182252284851
3.0299999713898	-8.4394766640117
3.0450000762939	-8.3695615839929
3.0599999427795	-8.3081599635159
3.0750000476837	-8.2549563788538
3.0899999141693	-8.2096399828457
3.1050000190735	-8.1719079500262
3.1199998855591	-8.1414677486173
3.1349999904633	-8.1180302483774
3.1500000953674	-8.1013208647297
3.1649999618530	-8.0910690425682
3.1800000667572	-8.0870168442112
3.1949999332428	-8.0889222050996
3.2100000381470	-8.0965516176628
3.2249999046326	-8.1096838353570
3.2400000095367	-8.1281183364820
3.2550001144409	-8.1516663600069
3.2699999809265	-8.1801570756441
3.2850000858307	-8.2134371055823
3.2999999523163	-8.2513728804764
3.3150000572205	-8.2938502049727
3.3299999237061	-8.3407762865723
3.3450000286102	-8.3920755938039
3.3599998950958	-8.4476992135835
3.3750000000000	-8.5076143223114
3.3900001049042	-8.5718133074442
3.4049999713898	-8.6403075120271
3.4200000762939	-8.7131269240759
3.4349999427795	-8.7903272215024
3.4500000476837	-8.8719770110528
3.4649999141693	-8.9581662396540
3.4800000190735	-9.0490031123728
3.4949998855591	-9.1446068422407
3.5099999904633	-9.2451168721995
3.5250000953674	-9.3506789832047
3.5399999618530	-9.4614556269640
3.5550000667572	-9.5776192649934
3.5699999332428	-9.6993498217582
3.5850000381470	-9.8268314332164
3.5999999046326	-9.9602624450393
3.6150000095367	-10.099841435127
3.6300001144409	-10.245767842565
3.6449999809265	-10.398254951091
3.6600000858307	-10.557511532680
3.6749999523163	-10.723749304515
3.6900000572205	-10.897188905942
3.7049999237061	-11.078051139840
3.7200000286102	-11.266563005781
3.7349998950958	-11.462956736884
3.7500000000000	-11.667475059901
3.7650001049042	-11.880368064098
3.7799999713898	-12.101901945545
3.7950000762939	-12.332359086126
3.8099999427795	-12.572045396579
3.8250000476837	-12.821292057297
3.8399999141693	-13.080465935772
3.8550000190735	-13.349973054834
3.8699998855591	-13.630272821622
3.8849999904633	-13.921882562696
3.9000000953674	-14.225391916041
3.9149999618530	-14.541480711788
3.9300000667572	-14.870927391339
3.9449999332428	-15.214636437408
3.9600000381470	-15.573658993132
3.9749999046326	-15.949218940506
3.9900000095367	-16.342746181423
4.0050001144409	-16.755924806624
4.0199999809265	-17.190729072451
4.0349998474121	-17.649503800114
4.0500001907349	-18.135030905571
4.0650000572205	-18.650640636458
4.0799999237061	-19.200349215989
4.0949997901917	-19.789040070094
4.1100001335144	-20.422715621263
4.1250000000000	-21.108852296271
4.1399998664856	-21.856915726560
4.1550002098083	-22.679108441444
4.1700000762939	-23.591544143012
4.1849999427795	-24.616103356216
4.1999998092651	-25.783580751094
4.2150001525879	-27.139307348672
4.2300000190735	-28.754091174817
4.2449998855591	-30.747805831503
4.2600002288818	-33.348717334209
4.2750000953674	-37.081233161000
4.2899999618530	-43.660729602322
4.3049998283386	-52.840070611446
4.3200001716614	-40.809848092459
4.3350000381470	-35.580090686063
4.3499999046326	-32.320365459190
4.3649997711182	-29.955001768519
4.3800001144409	-28.101540938826
4.3949999809265	-26.580574775222
4.4099998474121	-25.293656815625
4.4250001907349	-24.180980139100
4.4400000572205	-23.203513127077
4.4549999237061	-22.334385188281
4.4699997901917	-21.554322553750
4.4850001335144	-20.849031571060
4.5000000000000	-20.207612894913
4.5149998664856	-19.621576175052
4.5300002098083	-19.084161051162
4.5450000762939	-18.589900557118
4.5599999427795	-18.134299559295
4.5749998092651	-17.713613525072
4.5900001525879	-17.324678732765
4.6050000190735	-16.964789997443
4.6199998855591	-16.631609880291
4.6350002288818	-16.323092465007
4.6500000953674	-16.037427521924
4.6649999618530	-15.772996554091
4.6799998283386	-15.528337145800
4.6950001716614	-15.302111835244
4.7100000381470	-15.093088057624
4.7249999046326	-14.900113990054
4.7399997711182	-14.722102487686
4.7550001144409	-14.558023726229
4.7699999809265	-14.406887897152
4.7849998474121	-14.267734591889
4.8000001907349	-14.139630453830
4.8150000572205	-14.021660776478
4.8299999237061	-13.912922343577
4.8449997901917	-13.812521119605
4.8600001335144	-13.719574306325
4.8750000000000	-13.633200012011
4.8899998664856	-13.552529709730
4.9050002098083	-13.476694370751
4.9200000762939	-13.404842207652
4.9349999427795	-13.336131047140
4.9499998092651	-13.269740306840
4.9650001525879	-13.204869382122
4.9800000190735	-13.140748352298
4.9949998855591	-13.076641826734
5.0100002288818	-13.011862023573
5.0250000953674	-12.945761143942
5.0399999618530	-12.877749565755
5.0549998283386	-12.807298517512
5.0700001716614	-12.733937901234
5.0850000381470	-12.657270059929
5.0999999046326	-12.576961077833
5.1149997711182	-12.492745698219
5.1300001144409	-12.404424756149
5.1449999809265	-12.311862700643
5.1599998474121	-12.214980715691
5.1750001907349	-12.113755823606
5.1900000572205	-12.008212245075
5.2049999237061	-11.898413891660
5.2199997901917	-11.784455882897
5.2350001335144	-11.666463296899
5.2500000000000	-11.544578376346
5.2649998664856	-11.418960222033
5.2800002098083	-11.289773773900
5.2950000762939	-11.157190636204
5.3099999427795	-11.021380514897
5.3249998092651	-10.882514605221
5.3400001525879	-10.740759722946
5.3550000190735	-10.596277701947
5.3699998855591	-10.449231596729
5.3850002288818	-10.299771659866
5.4000000953674	-10.148058983597
5.4149999618530	-9.9942463879549
5.4299998283386	-9.8384874431527
5.4450001716614	-9.6809430481354
5.4600000381470	-9.5217785811953
5.4749999046326	-9.3611618264843
5.4899997711182	-9.1992730440036
5.5050001144409	-9.0362978849684
5.5199999809265	-8.8724279052734
5.5349998474121	-8.7078735020196
5.5500001907349	-8.5428405115017
5.5650000572205	-8.3775541268340
5.5799999237061	-8.2122393864929
5.5949997901917	-8.0471276172248
5.6100001335144	-7.8824560668663
5.6250000000000	-7.7184602862682
5.6399998664856	-7.5553785192939
5.6550002098083	-7.3934449310509
5.6700000762939	-7.2328914708227
5.6849999427795	-7.0739391980208
5.6999998092651	-6.9168083502627
5.7150001525879	-6.7617001536252
5.7300000190735	-6.6088104434377
5.7449998855591	-6.4583223604960
5.7600002288818	-6.3104013123988
5.7750000953674	-6.1652000381144
5.7899999618530	-6.0228536238902
5.8049998283386	-5.8834848124755
5.8200001716614	-5.7471934155455
5.8350000381470	-5.6140651672362
5.8499999046326	-5.4841720123009
5.8649997711182	-5.3575674041120
5.8800001144409	-5.2342840349989
5.8949999809265	-5.1143422867276
5.9099998474121	-4.9977489175007
5.9250001907349	-4.8844923358958
5.9400000572205	-4.7745511119306
5.9549999237061	-4.6678866515149
5.9699997901917	-4.5644491838342
5.9850001335144	-4.4641814469662
6.0000000000000	-4.3670119772498
6.0149998664856	-4.2728623304802
6.0300002098083	-4.1816457630725
6.0450000762939	-4.0932685886379
6.0599999427795	-4.0076349212467
6.0749998092651	-3.9246401201726
6.0900001525879	-3.8441799394704
6.1050000190735	-3.7661452100107
6.1199998855591	-3.6904307530158
6.1350002288818	-3.6169262788224
6.1500000953674	-3.5455299590597
6.1649999618530	-3.4761369679538
6.1799998283386	-3.4086490446010
6.1950001716614	-3.3429731848964
6.2100000381470	-3.2790198962761
6.2249999046326	-3.2167087138394
6.2399997711182	-3.1559632630202
6.2550001144409	-3.0967171326878
6.2699999809265	-3.0389083481141
6.2849998474121	-2.9824851083762
6.3000001907349	-2.9274080438678
6.3150000572205	-2.8736378708700
6.3299999237061	-2.8211457133962
6.3449997901917	-2.7699152094135
6.3600001335144	-2.7199292502261
6.3750000000000	-2.6711862580106
6.3899998664856	-2.6236817564785
6.4050002098083	-2.5774232927595
6.4200000762939	-2.5324170812036
6.4349999427795	-2.4886778099945
6.4499998092651	-2.4462206403197
6.4650001525879	-2.4050629251111
6.4800000190735	-2.3652222876800
6.4949998855591	-2.3267168724679
6.5100002288818	-2.2895610726555
6.5250000953674	-2.2537700336327
6.5399999618530	-2.2193576526642
6.5549998283386	-2.1863281777747
6.5700001716614	-2.1546891111446
6.5850000381470	-2.1244370350723
6.5999999046326	-2.0955629109964
6.6149997711182	-2.0680576175255
6.6300001144409	-2.0419002842534
6.6449999809265	-2.0170678821957
6.6599998474121	-1.9935245617487
6.6750001907349	-1.9712347310426
6.6900000572205	-1.9501538654486
6.7049999237061	-1.9302290065772
6.7199997901917	-1.9114067438533
6.7350001335144	-1.8936231520444
6.7500000000000	-1.8768118929140
6.7649998664856	-1.8609024914096
6.7800002098083	-1.8458220971429
6.7950000762939	-1.8314940212562
6.8099999427795	-1.8178420419160
6.8249998092651	-1.8047890322316
6.8400001525879	-1.7922576460354
6.8550000190735	-1.7801713588071
6.8699998855591	-1.7684607146782
6.8850002288818	-1.7570547069564
6.9000000953674	-1.7458891966894
6.9149999618530	-1.7349076628639
6.9299998283386	-1.7240559702890
6.9450001716614	-1.7132896738318
6.9600000381470	-1.7025724288629
6.9749999046326	-1.6918717465731
6.9899997711182	-1.6811708674584
7.0050001144409	-1.6704525536078
7.0199999809265	-1.6597166093091
7.0349998474121	-1.6489638660983
7.0500001907349	-1.6382094733555
7.0650000572205	-1.6274711700870
7.0799999237061	-1.6167731692866
7.0949997901917	-1.6061525606078
7.1100001335144	-1.5956437412593
7.1250000000000	-1.5852891197979
7.1399998664856	-1.5751334914710
7.1550002098083	-1.5652255610535
7.1700000762939	-1.5556117653206
7.1849999427795	-1.5463422873940
7.1999998092651	-1.5374634674053
7.2150001525879	-1.5290202880300
7.2300000190735	-1.5210551260393
7.2449998855591	-1.5136047753519
7.2600002288818	-1.5067036675024
7.2750000953674	-1.5003792434350
7.2899999618530	-1.4946498342245
7.3049998283386	-1.4895307353740
7.3200001716614	-1.4850283745552
7.3350000381470	-1.4811408820664
7.3499999046326	-1.4778622611116
7.3649997711182	-1.4751724517994
7.3800001144409	-1.4730492786597
7.3949999809265	-1.4714621790529
7.4099998474121	-1.4703714660857
7.4250001907349	-1.4697341520494
7.4400000572205	-1.4695009970125
7.4549999237061	-1.4696190891898
7.4699997901917	-1.4700285362934
7.4850001335144	-1.4706680100641
7.5000000000000	-1.4714787399072
7.5149998664856	-1.4723951936142
7.5300002098083	-1.4733547056240
7.5450000762939	-1.4742992424719
7.5599999427795	-1.4751693503786
7.5749998092651	-1.4759123872314
7.5900001525879	-1.4764788751271
7.6050000190735	-1.4768275200046
7.6199998855591	-1.4769191909258
7.6350002288818	-1.4767259273481
7.6500000953674	-1.4762297035444
7.6649999618530	-1.4754135506244
7.6799998283386	-1.4742753678267
7.6950001716614	-1.4728185449066
7.7100000381470	-1.4710555514580
7.7249999046326	-1.4690066299733
7.7399997711182	-1.4666978391595
7.7550001144409	-1.4641665086222
7.7699999809265	-1.4614502768839
7.7849998474121	-1.4585967148881
7.8000001907349	-1.4556555824149
7.8150000572205	-1.4526800617285
7.8299999237061	-1.4497232474070
7.8449997901917	-1.4468417523706
7.8600001335144	-1.4440915827564
7.8750000000000	-1.4415267127182
7.8899998664856	-1.4391981833320
7.9050002098083	-1.4371527149620
7.9200000762939	-1.4354338254509
7.9349999427795	-1.4340797455474
7.9499998092651	-1.4331192801440
7.9650001525879	-1.4325800417937
7.9800000190735	-1.4324748052248
7.9949998855591	-1.4328154160371
8.0100002288818	-1.4336016926090
8.0249996185303	-1.4348262216259
8.0399999618530	-1.4364728581676
8.0550003051758	-1.4385197281925
8.0699996948242	-1.4409346306507
8.0850000381470	-1.4436818958019
8.1000003814697	-1.4467146473435
8.1149997711182	-1.4499881227846
8.1300001144409	-1.4534448231893
8.1450004577637	-1.4570296136773
8.1599998474121	-1.4606841461160
8.1750001907349	-1.4643450145601
8.1899995803833	-1.4679533657134
8.2049999237061	-1.4714500609615
8.2200002670288	-1.4747779923052
8.2349996566772	-1.4778836849436
8.2500000000000	-1.4807173489046
8.2650003433228	-1.4832361905387
8.2799997329712	-1.4854038085811
8.2950000762939	-1.4871902418208
8.3100004196167	-1.4885749356506
8.3249998092651	-1.4895426352004
8.3400001525879	-1.4900913928492
8.3549995422363	-1.4902221311769
8.3699998855591	-1.4899497502786
8.3850002288818	-1.4892924742328
8.3999996185303	-1.4882814814264
8.4149999618530	-1.4869501220288
8.4300003051758	-1.4853425123429
8.4449996948242	-1.4835037142775
8.4600000381470	-1.4814885955871
8.4750003814697	-1.4793519075551
8.4899997711182	-1.4771497703359
8.5050001144409	-1.4749425624513
8.5200004577637	-1.4727875263082
8.5349998474121	-1.4707432745720
8.5500001907349	-1.4688635488820
8.5649995803833	-1.4672000961858
8.5799999237061	-1.4657971620526
8.5950002670288	-1.4646945651572
8.6099996566772	-1.4639283022530
8.6250000000000	-1.4635234335655
