#Parameters = {er=9.373145427; tanD=0.510815239; PHANUP=14; a=0.95; b=0.5; c=1; d=1; gl=0; gw=30; l=8.5; l1=11; l2=13; mt=0.018; r=14; s=2; sf=1; sf1=1; sgl=2; sgw=2; sl=53; sl1=60; slotl=-2; slotw=1; sls=0; stripl=15; stripw=0.5; sw=30; t=0.13; w=1}
#"Frequency / GHz"	"S1,1 (47) [Magnitude]"
#-----------------------------------------
0.0000000000000	-35.141997207299
0.014999999664724	-34.669532428077
0.029999999329448	-33.508489084920
0.045000001788139	-32.096943662621
0.059999998658895	-30.703645300164
0.075000002980232	-29.430623454315
0.090000003576279	-28.300380857749
0.10499999672174	-27.306428800004
0.11999999731779	-26.433792689907
0.13500000536442	-25.666272189277
0.15000000596046	-24.988639579515
0.16500000655651	-24.387074042266
0.18000000715256	-23.848960393203
0.19499999284744	-23.362546727913
0.20999999344349	-22.916624000922
0.22499999403954	-22.500266442747
0.23999999463558	-22.102717329224
0.25499999523163	-21.713424080755
0.27000001072884	-21.322231625277
0.28499999642372	-20.919744956850
0.30000001192093	-20.497821933077
0.31499999761581	-20.050073525862
0.33000001311302	-19.572316077618
0.34499999880791	-19.062809253452
0.36000001430511	-18.522241648504
0.37500000000000	-17.953429064914
0.38999998569489	-17.360820446232
0.40500000119209	-16.749903251143
0.41999998688698	-16.126607563399
0.43500000238419	-15.496820768297
0.44999998807907	-14.866038221587
0.46500000357628	-14.239135583547
0.47999998927116	-13.620282208973
0.49500000476837	-13.012918171304
0.50999999046326	-12.419802283257
0.52499997615814	-11.843085456668
0.54000002145767	-11.284391920912
0.55500000715256	-10.744903590969
0.56999999284744	-10.225442629934
0.58499997854233	-9.7265383678796
0.60000002384186	-9.2484821815317
0.61500000953674	-8.7913832803481
0.62999999523163	-8.3552035042099
0.64499998092651	-7.9397940972865
0.66000002622604	-7.5449137299101
0.67500001192093	-7.1702588321166
0.68999999761581	-6.8154737060601
0.70499998331070	-6.4801666311432
0.72000002861023	-6.1639196003824
0.73500001430511	-5.8662966147573
0.75000000000000	-5.5868527424165
0.76499998569489	-5.3251410759987
0.77999997138977	-5.0807129792115
0.79500001668930	-4.8531266411712
0.81000000238419	-4.6419510811555
0.82499998807907	-4.4467672314537
0.83999997377396	-4.2671720470858
0.85500001907349	-4.1027812468072
0.87000000476837	-3.9532286467955
0.88499999046326	-3.8181762614075
0.89999997615814	-3.6973058798694
0.91500002145767	-3.5903282078219
0.93000000715256	-3.4969809847523
0.94499999284744	-3.4170299578686
0.95999997854233	-3.3502701979912
0.97500002384186	-3.2965300090018
0.99000000953674	-3.2556655328156
1.0049999952316	-3.2275668750772
1.0199999809265	-3.2121563646733
1.0349999666214	-3.2093901791946
1.0499999523163	-3.2192534777545
1.0650000572205	-3.2417670816901
1.0800000429153	-3.2769849401768
1.0950000286102	-3.3249937435001
1.1100000143051	-3.3859098921510
1.1250000000000	-3.4598861234006
1.1399999856949	-3.5471056308922
1.1549999713898	-3.6477821881998
1.1699999570847	-3.7621649626933
1.1849999427795	-3.8905275790497
1.2000000476837	-4.0331808057692
1.2150000333786	-4.1904640220823
1.2300000190735	-4.3627449568111
1.2450000047684	-4.5504273661116
1.2599999904633	-4.7539394630916
1.2749999761581	-4.9737439796144
1.2899999618530	-5.2103345599718
1.3049999475479	-5.4642407693716
1.3200000524521	-5.7360241319419
1.3350000381470	-6.0262867528643
1.3500000238419	-6.3356705481541
1.3650000095367	-6.6648630405292
1.3799999952316	-7.0146023815107
1.3949999809265	-7.3856892799689
1.4099999666214	-7.7789855197638
1.4249999523163	-8.1954378540085
1.4400000572205	-8.6360810476164
1.4550000429153	-9.1020587060951
1.4700000286102	-9.5946512220930
1.4850000143051	-10.115290200856
1.5000000000000	-10.665601220112
1.5149999856949	-11.247438382974
1.5299999713898	-11.862942840785
1.5449999570847	-12.514604752285
1.5599999427795	-13.205353775952
1.5750000476837	-13.938667284663
1.5900000333786	-14.718729335631
1.6050000190735	-15.550624264150
1.6200000047684	-16.440627676569
1.6349999904633	-17.396596709743
1.6499999761581	-18.428542873000
1.6649999618530	-19.549486749469
1.6799999475479	-20.776747808736
1.6950000524521	-22.134032170820
1.7100000381470	-23.654858662821
1.7250000238419	-25.388558423493
1.7400000095367	-27.411240958147
1.7549999952316	-29.846596647853
1.7699999809265	-32.902077693047
1.7849999666214	-36.861166515042
1.7999999523163	-40.952847178960
1.8150000572205	-39.873436488257
1.8300000429153	-36.111961121061
1.8450000286102	-33.187836682048
1.8600000143051	-31.046292279104
1.8750000000000	-29.418984932726
1.8899999856949	-28.138387571100
1.9049999713898	-27.103526777929
1.9199999570847	-26.250520032319
1.9349999427795	-25.536772938465
1.9500000476837	-24.932574922764
1.9650000333786	-24.416411637569
1.9800000190735	-23.972226441663
1.9950000047684	-23.587737461078
2.0099999904633	-23.253372841076
2.0250000953674	-22.961561733836
2.0399999618530	-22.706253437694
2.0550000667572	-22.482573632243
2.0699999332428	-22.286576708049
2.0850000381470	-22.115053301897
2.0999999046326	-21.965377115931
2.1150000095367	-21.835385457135
2.1300001144409	-21.723262978791
2.1449999809265	-21.627443509131
2.1600000858307	-21.546519539421
2.1749999523163	-21.479146162263
2.1900000572205	-21.423958143879
2.2049999237061	-21.379476310307
2.2200000286102	-21.344019250961
2.2349998950958	-21.315616486054
2.2500000000000	-21.291923899616
2.2650001049042	-21.270150162551
2.2799999713898	-21.247002599204
2.2950000762939	-21.218663259712
2.3099999427795	-21.180811450605
2.3250000476837	-21.128707593748
2.3399999141693	-21.057355385288
2.3550000190735	-20.961744787492
2.3699998855591	-20.837172419519
2.3849999904633	-20.679615457336
2.4000000953674	-20.486085363198
2.4149999618530	-20.254933129594
2.4300000667572	-19.986035098935
2.4449999332428	-19.680818152404
2.4600000381470	-19.342091224751
2.4749999046326	-18.973799322793
2.4900000095367	-18.580651549564
2.5050001144409	-18.167739443017
2.5199999809265	-17.740226876819
2.5350000858307	-17.303048330884
2.5499999523163	-16.860753717885
2.5650000572205	-16.417379335437
2.5799999237061	-15.976403375523
2.5950000286102	-15.540757885871
2.6099998950958	-15.112856441196
2.6250000000000	-14.694634824635
2.6400001049042	-14.287625807001
2.6549999713898	-13.893007152395
2.6700000762939	-13.511654219982
2.6849999427795	-13.144198664026
2.7000000476837	-12.791068231727
2.7149999141693	-12.452524175225
2.7300000190735	-12.128692188911
2.7449998855591	-11.819591790262
2.7599999904633	-11.525152713388
2.7750000953674	-11.245240916097
2.7899999618530	-10.979663066366
2.8050000667572	-10.728187079312
2.8199999332428	-10.490548972993
2.8350000381470	-10.266456373605
2.8499999046326	-10.055596963876
2.8650000095367	-9.8576510726001
2.8800001144409	-9.6722828408937
2.8949999809265	-9.4991516488477
2.9100000858307	-9.3379138347149
2.9249999523163	-9.1882191108839
2.9400000572205	-9.0497233555342
2.9549999237061	-8.9220784321427
2.9700000286102	-8.8049391514495
2.9849998950958	-8.6979608309053
3.0000000000000	-8.6008073952867
3.0150001049042	-8.5131393814602
3.0299999713898	-8.4346293546988
3.0450000762939	-8.3649466841710
3.0599999427795	-8.3037725943482
3.0750000476837	-8.2507911864050
3.0899999141693	-8.2056929588104
3.1050000190735	-8.1681753937157
3.1199998855591	-8.1379422476194
3.1349999904633	-8.1147098517892
3.1500000953674	-8.0981977502233
3.1649999618530	-8.0881398855276
3.1800000667572	-8.0842790162246
3.1949999332428	-8.0863689248979
3.2100000381470	-8.0941779059277
3.2249999046326	-8.1074852240844
3.2400000095367	-8.1260898625632
3.2550001144409	-8.1498019686457
3.2699999809265	-8.1784518584675
3.2850000858307	-8.2118858560777
3.2999999523163	-8.2499688239509
3.3150000572205	-8.2925889806072
3.3299999237061	-8.3396505598294
3.3450000286102	-8.3910815460156
3.3599998950958	-8.4468295317372
3.3750000000000	-8.5068634617155
3.3900001049042	-8.5711748386826
3.4049999713898	-8.6397752338932
3.4200000762939	-8.7126969329922
3.4349999427795	-8.7899930862261
3.4500000476837	-8.8717336836564
3.4649999141693	-8.9580093481040
3.4800000190735	-9.0489255565895
3.4949998855591	-9.1446063473081
3.5099999904633	-9.2451857866205
3.5250000953674	-9.3508175234063
3.5399999618530	-9.4616592799643
3.5550000667572	-9.5778849247638
3.5699999332428	-9.6996741857436
3.5850000381470	-9.8272167653153
3.5999999046326	-9.9607046915645
3.6150000095367	-10.100339876861
3.6300001144409	-10.246326350997
3.6449999809265	-10.398869763758
3.6600000858307	-10.558187395488
3.6749999523163	-10.724489210875
3.6900000572205	-10.897994463739
3.7049999237061	-11.078929196234
3.7200000286102	-11.267516841514
3.7349998950958	-11.463995363627
3.7500000000000	-11.668604071930
3.7650001049042	-11.881596450065
3.7799999713898	-12.103242017706
3.7950000762939	-12.333821829098
3.8099999427795	-12.573643166341
3.8250000476837	-12.823040411722
3.8399999141693	-13.082380046143
3.8550000190735	-13.352073589109
3.8699998855591	-13.632578590914
3.8849999904633	-13.924416513950
3.9000000953674	-14.228178740871
3.9149999618530	-14.544546486215
3.9300000667572	-14.874305182943
3.9449999332428	-15.218359793841
3.9600000381470	-15.577764798124
3.9749999046326	-15.953748761503
3.9900000095367	-16.347749477373
4.0050001144409	-16.761451961285
4.0199999809265	-17.196842565739
4.0349998474121	-17.656269996380
4.0500001907349	-18.142530261182
4.0650000572205	-18.658965933958
4.0799999237061	-19.209609817431
4.0949997901917	-19.799365283346
4.1100001335144	-20.434262262088
4.1250000000000	-21.121815964169
4.1399998664856	-21.871543118279
4.1550002098083	-22.695718503089
4.1700000762939	-23.610558385332
4.1849999427795	-24.638106741148
4.1999998092651	-25.809407255017
4.2150001525879	-27.170221827533
4.2300000190735	-28.792130469916
4.2449998855591	-30.796610252864
4.2600002288818	-33.415774397685
4.2750000953674	-37.186020964145
4.2899999618530	-43.885583125478
4.3049998283386	-52.529735705697
4.3200001716614	-40.656558597896
4.3350000381470	-35.493136169440
4.3499999046326	-32.259989198768
4.3649997711182	-29.908891766244
4.3800001144409	-28.064357577582
4.3949999809265	-26.549534304180
4.4099998474121	-25.267125697256
4.4250001907349	-24.157915899334
4.4400000572205	-23.183213511573
4.4549999237061	-22.316354690142
4.4699997901917	-21.538195667425
4.4850001335144	-20.834531182728
4.5000000000000	-20.194530546076
4.5149998664856	-19.609740990428
4.5300002098083	-19.073439276980
4.5450000762939	-18.580182548224
4.5599999427795	-18.125494078414
4.5749998092651	-17.705644750297
4.5900001525879	-17.317483083086
4.6050000190735	-16.958312526916
4.6199998855591	-16.625806057245
4.6350002288818	-16.317920935000
4.6500000953674	-16.032852282057
4.6649999618530	-15.768987601181
4.6799998283386	-15.524866683482
4.6950001716614	-15.299155211794
4.7100000381470	-15.090623733698
4.7249999046326	-14.898118706112
4.7399997711182	-14.720560616242
4.7550001144409	-14.556918693437
4.7699999809265	-14.406198970570
4.7849998474121	-14.267449412923
4.8000001907349	-14.139731513624
4.8150000572205	-14.022133546569
4.8299999237061	-13.913752384545
4.8449997901917	-13.813691081992
4.8600001335144	-13.721068210653
4.8750000000000	-13.635001610270
4.8899998664856	-13.554620089540
4.9050002098083	-13.479055518480
4.9200000762939	-13.407455572546
4.9349999427795	-13.338975781801
4.9499998092651	-13.272795155083
4.9650001525879	-13.208110130199
4.9800000190735	-13.144154737412
4.9949998855591	-13.080189800482
5.0100002288818	-13.015525217926
5.0250000953674	-12.949513942528
5.0399999618530	-12.881568215218
5.0549998283386	-12.811158351846
5.0700001716614	-12.737814919315
5.0850000381470	-12.661138822948
5.0999999046326	-12.580798690002
5.1149997711182	-12.496530185658
5.1300001144409	-12.408134693189
5.1449999809265	-12.315478170641
5.1599998474121	-12.218485777720
5.1750001907349	-12.117135012441
5.1900000572205	-12.011451338240
5.2049999237061	-11.901499830960
5.2199997901917	-11.787379145000
5.2350001335144	-11.669216251321
5.2500000000000	-11.547156121015
5.2649998664856	-11.421356841072
5.2800002098083	-11.291987988739
5.2950000762939	-11.159217906324
5.3099999427795	-11.023224238006
5.3249998092651	-10.884173848129
5.3400001525879	-10.742238268169
5.3550000190735	-10.597577883145
5.3699998855591	-10.450355297681
5.3850002288818	-10.300728576142
5.4000000953674	-10.148850653958
5.4149999618530	-9.9948801860997
5.4299998283386	-9.8389698307512
5.4450001716614	-9.6812806548906
5.4600000381470	-9.5219762295588
5.4749999046326	-9.3612290285356
5.4899997711182	-9.1992157876670
5.5050001144409	-9.0361244910355
5.5199999809265	-8.8721467436252
5.5349998474121	-8.7074899079303
5.5500001907349	-8.5423662215849
5.5650000572205	-8.3769942620075
5.5799999237061	-8.2116000550443
5.5949997901917	-8.0464188737758
5.6100001335144	-7.8816831845280
5.6250000000000	-7.7176324914948
5.6399998664856	-7.5545025892200
5.6550002098083	-7.3925274233955
5.6700000762939	-7.2319376767853
5.6849999427795	-7.0729574868725
5.6999998092651	-6.9158011772399
5.7150001525879	-6.7606773049414
5.7300000190735	-6.6077764917957
5.7449998855591	-6.4572806373428
5.7600002288818	-6.3093587881075
5.7750000953674	-6.1641595769683
5.7899999618530	-6.0218199597554
5.8049998283386	-5.8824606475661
5.8200001716614	-5.7461836628154
5.8350000381470	-5.6130740441566
5.8499999046326	-5.4832009086861
5.8649997711182	-5.3566179793853
5.8800001144409	-5.2333602496397
5.8949999809265	-5.1134458699879
5.9099998474121	-4.9968811406554
5.9250001907349	-4.8836553970958
5.9400000572205	-4.7737456801329
5.9549999237061	-4.6671122592181
5.9699997901917	-4.5637083852691
5.9850001335144	-4.4634738300018
6.0000000000000	-4.3663376487688
6.0149998664856	-4.2722214241910
6.0300002098083	-4.1810364834367
6.0450000762939	-4.0926932984347
6.0599999427795	-4.0070909897463
6.0749998092651	-3.9241270502595
6.0900001525879	-3.8436956783910
6.1050000190735	-3.7656895647287
6.1199998855591	-3.6900020164574
6.1350002288818	-3.6165244026595
6.1500000953674	-3.5451513315431
6.1649999618530	-3.4757818024919
6.1799998283386	-3.4083156810843
6.1950001716614	-3.3426605173614
6.2100000381470	-3.2787258243650
6.2249999046326	-3.2164313072754
6.2399997711182	-3.1557020738533
6.2550001144409	-3.0964693624868
6.2699999809265	-3.0386738675136
6.2849998474121	-2.9822652499493
6.3000001907349	-2.9271958840110
6.3150000572205	-2.8734359105735
6.3299999237061	-2.8209528179478
6.3449997901917	-2.7697306266968
6.3600001335144	-2.7197543963045
6.3750000000000	-2.6710167531582
6.3899998664856	-2.6235177307030
6.4050002098083	-2.5772648401635
6.4200000762939	-2.5322663493963
6.4349999427795	-2.4885330961465
6.4499998092651	-2.4460821766002
6.4650001525879	-2.4049324132804
6.4800000190735	-2.3650963559008
6.4949998855591	-2.3265989152536
6.5100002288818	-2.2894504643692
6.5250000953674	-2.2536673074982
6.5399999618530	-2.2192619960451
6.5549998283386	-2.1862428782072
6.5700001716614	-2.1546115430374
6.5850000381470	-2.1243668888592
6.5999999046326	-2.0955054908480
6.6149997711182	-2.0680102100116
6.6300001144409	-2.0418637052095
6.6449999809265	-2.0170404568657
6.6599998474121	-1.9935088680187
6.6750001907349	-1.9712306877255
6.6900000572205	-1.9501609271892
6.7049999237061	-1.9302465934296
6.7199997901917	-1.9114348365713
6.7350001335144	-1.8936599142704
6.7500000000000	-1.8768600690390
6.7649998664856	-1.8609588343821
6.7800002098083	-1.8458870078075
6.7950000762939	-1.8315663218675
6.8099999427795	-1.8179220811108
6.8249998092651	-1.8048759931258
6.8400001525879	-1.7923493707138
6.8550000190735	-1.7802686249520
6.8699998855591	-1.7685604375649
6.8850002288818	-1.7571567953095
6.9000000953674	-1.7459935061415
6.9149999618530	-1.7350114801501
6.9299998283386	-1.7241599096237
6.9450001716614	-1.7133921050523
6.9600000381470	-1.7026720436200
6.9749999046326	-1.6919687725782
6.9899997711182	-1.6812641736327
7.0050001144409	-1.6705421165979
7.0199999809265	-1.6598020523533
7.0349998474121	-1.6490442541907
7.0500001907349	-1.6382842101203
7.0650000572205	-1.6275400898733
7.0799999237061	-1.6168388602102
7.0949997901917	-1.6062130965404
7.1100001335144	-1.5956991634957
7.1250000000000	-1.5853410939720
7.1399998664856	-1.5751823629569
7.1550002098083	-1.5652720181887
7.1700000762939	-1.5556571776736
7.1849999427795	-1.5463863559768
7.1999998092651	-1.5375076835592
7.2150001525879	-1.5290657910902
7.2300000190735	-1.5211037634535
7.2449998855591	-1.5136568520953
7.2600002288818	-1.5067597450240
7.2750000953674	-1.5004392879520
7.2899999618530	-1.4947161426222
7.3049998283386	-1.4896031474476
7.3200001716614	-1.4851094722380
7.3350000381470	-1.4812300110348
7.3499999046326	-1.4779600034575
7.3649997711182	-1.4752793971254
7.3800001144409	-1.4731653653902
7.3949999809265	-1.4715873462219
7.4099998474121	-1.4705067474953
7.4250001907349	-1.4698793874294
7.4400000572205	-1.4696546010898
7.4549999237061	-1.4697813178916
7.4699997901917	-1.4701982513771
7.4850001335144	-1.4708444838472
7.5000000000000	-1.4716610220961
7.5149998664856	-1.4725828037470
7.5300002098083	-1.4735474009590
7.5450000762939	-1.4744938665573
7.5599999427795	-1.4753663094765
7.5749998092651	-1.4761096834377
7.5900001525879	-1.4766750948457
7.6050000190735	-1.4770188018102
7.6199998855591	-1.4771091426937
7.6350002288818	-1.4769117754951
7.6500000953674	-1.4764092180615
7.6649999618530	-1.4755854269105
7.6799998283386	-1.4744397540705
7.6950001716614	-1.4729738899460
7.7100000381470	-1.4712009165833
7.7249999046326	-1.4691410148613
7.7399997711182	-1.4668225304512
7.7550001144409	-1.4642795011198
7.7699999809265	-1.4615533868347
7.7849998474121	-1.4586891177237
7.8000001907349	-1.4557365669432
7.8150000572205	-1.4527496666541
7.8299999237061	-1.4497830822944
7.8449997901917	-1.4468927093236
7.8600001335144	-1.4441334636913
7.8750000000000	-1.4415598039165
7.8899998664856	-1.4392230527097
7.9050002098083	-1.4371727931060
7.9200000762939	-1.4354484120904
7.9349999427795	-1.4340892562430
7.9499998092651	-1.4331262062142
7.9650001525879	-1.4325848743251
7.9800000190735	-1.4324792012442
7.9949998855591	-1.4328190962134
8.0100002288818	-1.4336052833475
8.0249996185303	-1.4348310903104
8.0399999618530	-1.4364806699609
8.0550003051758	-1.4385306446164
8.0699996948242	-1.4409488967636
8.0850000381470	-1.4436987612711
8.1000003814697	-1.4467351197978
8.1149997711182	-1.4500115308152
8.1300001144409	-1.4534724358842
8.1450004577637	-1.4570608569672
8.1599998474121	-1.4607174054257
8.1750001907349	-1.4643807363045
8.1899995803833	-1.4679913348130
8.2049999237061	-1.4714889438963
8.2200002670288	-1.4748179467685
8.2349996566772	-1.4779219975367
8.2500000000000	-1.4807542186815
8.2650003433228	-1.4832708957649
8.2799997329712	-1.4854353479304
8.2950000762939	-1.4872179799876
8.3100004196167	-1.4885978151126
8.3249998092651	-1.4895603740096
8.3400001525879	-1.4901015754939
8.3549995422363	-1.4902245602947
8.3699998855591	-1.4899434544273
8.3850002288818	-1.4892772943850
8.3999996185303	-1.4882581231500
8.4149999618530	-1.4869168412296
8.4300003051758	-1.4852984395002
8.4449996948242	-1.4834504276304
8.4600000381470	-1.4814247811745
8.4750003814697	-1.4792776694829
8.4899997711182	-1.4770664239440
8.5050001144409	-1.4748501020466
8.5200004577637	-1.4726862868293
8.5349998474121	-1.4706343878695
8.5500001907349	-1.4687471502855
8.5649995803833	-1.4670749927531
8.5799999237061	-1.4656658395562
8.5950002670288	-1.4645587000204
8.6099996566772	-1.4637864518086
8.6250000000000	-1.4633776784670
