#Parameters = {er=8.897084845; tanD=0.521382168; PHANUP=10; a=0.95; b=0.5; c=1; d=1; gl=0; gw=30; l=8.5; l1=11; l2=13; mt=0.018; r=14; s=2; sf=1; sf1=1; sgl=2; sgw=2; sl=53; sl1=60; slotl=-2; slotw=1; sls=0; stripl=15; stripw=0.5; sw=30; t=0.13; w=1}
#"Frequency / GHz"	"S1,1 (3) [Magnitude]"
#----------------------------------------
0.0000000000000	-22.086995874487
0.014999999664724	-22.072444924234
0.029999999329448	-22.029400371237
0.045000001788139	-21.959614265192
0.059999998658895	-21.865813148407
0.075000002980232	-21.751420272985
0.090000003576279	-21.620251142803
0.10499999672174	-21.476212386863
0.11999999731779	-21.323030666565
0.13500000536442	-21.164021446045
0.15000000596046	-21.001944357896
0.16500000655651	-20.838877319730
0.18000000715256	-20.676148039799
0.19499999284744	-20.514305186799
0.20999999344349	-20.353094586001
0.22499999403954	-20.191468391245
0.23999999463558	-20.027612789495
0.25499999523163	-19.858996097772
0.27000001072884	-19.682460612345
0.28499999642372	-19.494346503529
0.30000001192093	-19.290671708098
0.31499999761581	-19.067367029670
0.33000001311302	-18.820561360864
0.34499999880791	-18.546877338959
0.36000001430511	-18.243739940696
0.37500000000000	-17.909608291575
0.38999998569489	-17.544142290588
0.40500000119209	-17.148238876075
0.41999998688698	-16.723939654839
0.43500000238419	-16.274251293402
0.44999998807907	-15.802886318426
0.46500000357628	-15.313982302264
0.47999998927116	-14.811827890651
0.49500000476837	-14.300640670587
0.50999999046326	-13.784399771976
0.52499997615814	-13.266727918689
0.54000002145767	-12.750833121140
0.55500000715256	-12.239484556912
0.56999999284744	-11.735027007862
0.58499997854233	-11.239407261038
0.60000002384186	-10.754214295641
0.61500000953674	-10.280718100777
0.62999999523163	-9.8199177508490
0.64499998092651	-9.3725812962712
0.66000002622604	-8.9392792761128
0.67500001192093	-8.5204188803981
0.68999999761581	-8.1162736641834
0.70499998331070	-7.7270073609291
0.72000002861023	-7.3526882586009
0.73500001430511	-6.9933125587218
0.75000000000000	-6.6488120012622
0.76499998569489	-6.3190716351143
0.77999997138977	-6.0039349549414
0.79500001668930	-5.7032106853990
0.81000000238419	-5.4166825913550
0.82499998807907	-5.1441148587637
0.83999997377396	-4.8852534266638
0.85500001907349	-4.6398331763368
0.87000000476837	-4.4075784967091
0.88499999046326	-4.1882127232187
0.89999997615814	-3.9814504940929
0.91500002145767	-3.7870108399218
0.93000000715256	-3.6046092196447
0.94499999284744	-3.4339698390654
0.95999997854233	-3.2748203805344
0.97500002384186	-3.1268948759278
0.99000000953674	-2.9899345124412
1.0049999952316	-2.8636963358919
1.0199999809265	-2.7479405757847
1.0349999666214	-2.6424431273964
1.0499999523163	-2.5469966013262
1.0650000572205	-2.4614008403493
1.0800000429153	-2.3854775196839
1.0950000286102	-2.3190592677977
1.1100000143051	-2.2619968675278
1.1250000000000	-2.2141557101166
1.1399999856949	-2.1754217477947
1.1549999713898	-2.1456970714651
1.1699999570847	-2.1248987044513
1.1849999427795	-2.1129652255541
1.2000000476837	-2.1098521776432
1.2150000333786	-2.1155320495648
1.2300000190735	-2.1299968275104
1.2450000047684	-2.1532568125181
1.2599999904633	-2.1853386218230
1.2749999761581	-2.2262882359829
1.2899999618530	-2.2761697874509
1.3049999475479	-2.3350618902420
1.3200000524521	-2.4030621986194
1.3350000381470	-2.4802849491430
1.3500000238419	-2.5668610548342
1.3650000095367	-2.6629347835517
1.3799999952316	-2.7686710989074
1.3949999809265	-2.8842413541502
1.4099999666214	-3.0098370318800
1.4249999523163	-3.1456605565283
1.4400000572205	-3.2919298725734
1.4550000429153	-3.4488734445187
1.4700000286102	-3.6167275267013
1.4850000143051	-3.7957433772052
1.5000000000000	-3.9861825815754
1.5149999856949	-4.1883133237710
1.5299999713898	-4.4024120070264
1.5449999570847	-4.6287668250914
1.5599999427795	-4.8676676435780
1.5750000476837	-5.1194174205522
1.5900000333786	-5.3843194259333
1.6050000190735	-5.6626890796363
1.6200000047684	-5.9548447660385
1.6349999904633	-6.2611074788957
1.6499999761581	-6.5818119331449
1.6649999618530	-6.9172928066589
1.6799999475479	-7.2678924474418
1.6950000524521	-7.6339619419031
1.7100000381470	-8.0158593841229
1.7250000238419	-8.4139465941764
1.7400000095367	-8.8285975962237
1.7549999952316	-9.2601893203719
1.7699999809265	-9.7091093095649
1.7849999666214	-10.175747643146
1.7999999523163	-10.660497313853
1.8150000572205	-11.163743127336
1.8300000429153	-11.685858412880
1.8450000286102	-12.227187234166
1.8600000143051	-12.788021019355
1.8750000000000	-13.368562451190
1.8899999856949	-13.968877575116
1.9049999713898	-14.588809849552
1.9199999570847	-15.227869323043
1.9349999427795	-15.885061139793
1.9500000476837	-16.558635083497
1.9650000333786	-17.245730063767
1.9800000190735	-17.941891490364
1.9950000047684	-18.640405377425
2.0099999904633	-19.331476062553
2.0250000953674	-20.001336548219
2.0399999618530	-20.631471309602
2.0550000667572	-21.198495966724
2.0699999332428	-21.675324504670
2.0850000381470	-22.034363350159
2.0999999046326	-22.252613942379
2.1150000095367	-22.317324628944
2.1300001144409	-22.229584007083
2.1449999809265	-22.003889932848
2.1600000858307	-21.663928734010
2.1749999523163	-21.236874044457
2.1900000572205	-20.748618915577
2.2049999237061	-20.221054232396
2.2200000286102	-19.671229637265
2.2349998950958	-19.111669006485
2.2500000000000	-18.551194964288
2.2650001049042	-17.995815418931
2.2799999713898	-17.449513669364
2.2950000762939	-16.914852781675
2.3099999427795	-16.393435884826
2.3250000476837	-15.886213478487
2.3399999141693	-15.393710535061
2.3550000190735	-14.916172453149
2.3699998855591	-14.453662869945
2.3849999904633	-14.006130319171
2.4000000953674	-13.573443879849
2.4149999618530	-13.155430778641
2.4300000667572	-12.751884065685
2.4449999332428	-12.362577491450
2.4600000381470	-11.987270868142
2.4749999046326	-11.625717451248
2.4900000095367	-11.277662326050
2.5050001144409	-10.942844913678
2.5199999809265	-10.621003233602
2.5350000858307	-10.311868496656
2.5499999523163	-10.015174096707
2.5650000572205	-9.7306467434006
2.5799999237061	-9.4580160151556
2.5950000286102	-9.1970119356748
2.6099998950958	-8.9473584491486
2.6250000000000	-8.7087871095763
2.6400001049042	-8.4810252311338
2.6549999713898	-8.2638051961323
2.6700000762939	-8.0568602383209
2.6849999427795	-7.8599262826988
2.7000000476837	-7.6727446194144
2.7149999141693	-7.4950553540415
2.7300000190735	-7.3266076542756
2.7449998855591	-7.1671525940067
2.7599999904633	-7.0164465419668
2.7750000953674	-6.8742525307130
2.7899999618530	-6.7403353712471
2.8050000667572	-6.6144674108640
2.8199999332428	-6.4964277639170
2.8350000381470	-6.3860007607803
2.8499999046326	-6.2829736955899
2.8650000095367	-6.1871448032325
2.8800001144409	-6.0983151788477
2.8949999809265	-6.0162939100049
2.9100000858307	-5.9408939438326
2.9249999523163	-5.8719356899070
2.9400000572205	-5.8092464115646
2.9549999237061	-5.7526586152977
2.9700000286102	-5.7020113958409
2.9849998950958	-5.6571507227219
3.0000000000000	-5.6179248522777
3.0150001049042	-5.5841939911956
3.0299999713898	-5.5558192788686
3.0450000762939	-5.5326714604203
3.0599999427795	-5.5146227144208
3.0750000476837	-5.5015554707244
3.0899999141693	-5.4933556489221
3.1050000190735	-5.4899182340836
3.1199998855591	-5.4911372706801
3.1349999904633	-5.4969175916630
3.1500000953674	-5.5071709363333
3.1649999618530	-5.5218104758872
3.1800000667572	-5.5407571951110
3.1949999332428	-5.5639374239677
3.2100000381470	-5.5912847878182
3.2249999046326	-5.6227342963573
3.2400000095367	-5.6582277410187
3.2550001144409	-5.6977167761111
3.2699999809265	-5.7411531063973
3.2850000858307	-5.7884915330862
3.2999999523163	-5.8397006698791
3.3150000572205	-5.8947458785608
3.3299999237061	-5.9535966714509
3.3450000286102	-6.0162337444498
3.3599998950958	-6.0826339950301
3.3750000000000	-6.1527836259993
3.3900001049042	-6.2266651961612
3.4049999713898	-6.3042715913640
3.4200000762939	-6.3855914985819
3.4349999427795	-6.4706195906815
3.4500000476837	-6.5593455996741
3.4649999141693	-6.6517631461656
3.4800000190735	-6.7478632650042
3.4949998855591	-6.8476355089601
3.5099999904633	-6.9510632658356
3.5250000953674	-7.0581262036023
3.5399999618530	-7.1688003577770
3.5550000667572	-7.2830498878990
3.5699999332428	-7.4008291688089
3.5850000381470	-7.5220823253223
3.5999999046326	-7.6467363388788
3.6150000095367	-7.7747021396220
3.6300001144409	-7.9058720737079
3.6449999809265	-8.0401130872985
3.6600000858307	-8.1772676285937
3.6749999523163	-8.3171444087659
3.6900000572205	-8.4595181263209
3.7049999237061	-8.6041290906680
3.7200000286102	-8.7506684414305
3.7349998950958	-8.8987840672740
3.7500000000000	-9.0480673185502
3.7650001049042	-9.1980530432484
3.7799999713898	-9.3482179989716
3.7950000762939	-9.4979653719049
3.8099999427795	-9.6466366493404
3.8250000476837	-9.7934987263008
3.8399999141693	-9.9377467580395
3.8550000190735	-10.078507273716
3.8699998855591	-10.214839620386
3.8849999904633	-10.345746948659
3.9000000953674	-10.470176845288
3.9149999618530	-10.587046643829
3.9300000667572	-10.695258657875
3.9449999332428	-10.793715561952
3.9600000381470	-10.881351611571
3.9749999046326	-10.957162546956
3.9900000095367	-11.020225743432
4.0050001144409	-11.069738598859
4.0199999809265	-11.105041911938
4.0349998474121	-11.125645446822
4.0500001907349	-11.131246046073
4.0650000572205	-11.121737646440
4.0799999237061	-11.097220839218
4.0949997901917	-11.057995132786
4.1100001335144	-11.004549324732
4.1250000000000	-10.937544680963
4.1399998664856	-10.857782217899
4.1550002098083	-10.766192416168
4.1700000762939	-10.663788437780
4.1849999427795	-10.551647316143
4.1999998092651	-10.430879733145
4.2150001525879	-10.302599340939
4.2300000190735	-10.167908907158
4.2449998855591	-10.027875619894
4.2600002288818	-9.8835175155617
4.2750000953674	-9.7357960486909
4.2899999618530	-9.5856062710158
4.3049998283386	-9.4337716734388
4.3200001716614	-9.2810425961254
4.3350000381470	-9.1281020762973
4.3499999046326	-8.9755576482405
4.3649997711182	-8.8239545269205
4.3800001144409	-8.6737681902486
4.3949999809265	-8.5254240584279
4.4099998474121	-8.3792873331797
4.4250001907349	-8.2356757667015
4.4400000572205	-8.0948634638682
4.4549999237061	-7.9570822813425
4.4699997901917	-7.8225296240532
4.4850001335144	-7.6913742961184
4.5000000000000	-7.5637505636159
4.5149998664856	-7.4397735258352
4.5300002098083	-7.3195388616981
4.5450000762939	-7.2031174250786
4.5599999427795	-7.0905707991306
4.5749998092651	-6.9819450645199
4.5900001525879	-6.8772782450428
4.6050000190735	-6.7765965340999
4.6199998855591	-6.6799215823297
4.6350002288818	-6.5872698014138
4.6500000953674	-6.4986509802768
4.6649999618530	-6.4140797132970
4.6799998283386	-6.3335627472876
4.6950001716614	-6.2571100645494
4.7100000381470	-6.1847338518021
4.7249999046326	-6.1164478298772
4.7399997711182	-6.0522689337388
4.7550001144409	-5.9922165448685
4.7699999809265	-5.9363183484419
4.7849998474121	-5.8846042137148
4.8000001907349	-5.8371125684224
4.8150000572205	-5.7938872974678
4.8299999237061	-5.7549789234973
4.8449997901917	-5.7204501853841
4.8600001335144	-5.6903654047670
4.8750000000000	-5.6648047791160
4.8899998664856	-5.6438536022804
4.9050002098083	-5.6276082913592
4.9200000762939	-5.6161768370249
4.9349999427795	-5.6096748765766
4.9499998092651	-5.6082331982316
4.9650001525879	-5.6119944263416
4.9800000190735	-5.6211087303612
4.9949998855591	-5.6357464823738
5.0100002288818	-5.6560854121722
5.0250000953674	-5.6823205996151
5.0399999618530	-5.7146603972388
5.0549998283386	-5.7533301111677
5.0700001716614	-5.7985689377731
5.0850000381470	-5.8506367689664
5.0999999046326	-5.9098059327279
5.1149997711182	-5.9763735589742
5.1300001144409	-6.0506501646446
5.1449999809265	-6.1329716054094
5.1599998474121	-6.2236919951761
5.1750001907349	-6.3231913625660
5.1900000572205	-6.4318706157086
5.2049999237061	-6.5501566724102
5.2199997901917	-6.6785030354023
5.2350001335144	-6.8173861955724
5.2500000000000	-6.9673137389156
5.2649998664856	-7.1288178156866
5.2800002098083	-7.3024576608856
5.2950000762939	-7.4888163679107
5.3099999427795	-7.6885028974744
5.3249998092651	-7.9021407834149
5.3400001525879	-8.1303627625408
5.3550000190735	-8.3738052481694
5.3699998855591	-8.6330823684000
5.3850002288818	-8.9087731164190
5.4000000953674	-9.2013772204905
5.4149999618530	-9.5112711498529
5.4299998283386	-9.8386372965395
5.4450001716614	-10.183375412152
5.4600000381470	-10.544957312781
5.4749999046326	-10.922261748131
5.4899997711182	-11.313319909888
5.5050001144409	-11.715004762584
5.5199999809265	-12.122645879220
5.5349998474121	-12.529558255500
5.5500001907349	-12.926590628813
5.5650000572205	-13.301741284669
5.5799999237061	-13.640112890856
5.5949997901917	-13.924449883357
5.6100001335144	-14.136553682170
5.6250000000000	-14.259657367302
5.6399998664856	-14.281387751238
5.6550002098083	-14.196399373878
5.6700000762939	-14.007644408633
5.6849999427795	-13.725672893425
5.6999998092651	-13.366307608131
5.7150001525879	-12.947675437378
5.7300000190735	-12.487580113739
5.7449998855591	-12.001791617839
5.7600002288818	-11.503266946250
5.7750000953674	-11.002051985407
5.7899999618530	-10.505587313036
5.8049998283386	-10.019158832162
5.8200001716614	-9.5463662529696
5.8350000381470	-9.0895364637611
5.8499999046326	-8.6500633911015
5.8649997711182	-8.2286676376049
5.8800001144409	-7.8256034532092
5.8949999809265	-7.4407868550002
5.9099998474121	-7.0739171163951
5.9250001907349	-6.7245479994486
5.9400000572205	-6.3921383177642
5.9549999237061	-6.0760952461507
5.9699997901917	-5.7757942987825
5.9850001335144	-5.4906048960360
6.0000000000000	-5.2199025113711
6.0149998664856	-4.9630681297651
6.0300002098083	-4.7195059078307
6.0450000762939	-4.4886372726268
6.0599999427795	-4.2699058524539
6.0749998092651	-4.0627807200773
6.0900001525879	-3.8667525835293
6.1050000190735	-3.6813356224595
6.1199998855591	-3.5060630842609
6.1350002288818	-3.3404922827951
6.1500000953674	-3.1841995717221
6.1649999618530	-3.0367775963765
6.1799998283386	-2.8978382463698
6.1950001716614	-2.7670074498956
6.2100000381470	-2.6439295921805
6.2249999046326	-2.5282583238851
6.2399997711182	-2.4196607032584
6.2550001144409	-2.3178154962862
6.2699999809265	-2.2224127040948
6.2849998474121	-2.1331494307290
6.3000001907349	-2.0497320536616
6.3150000572205	-1.9718754899888
6.3299999237061	-1.8993008147823
6.3449997901917	-1.8317337536394
6.3600001335144	-1.7689096861716
6.3750000000000	-1.7105651641495
6.3899998664856	-1.6564447320597
6.4050002098083	-1.6062946428936
6.4200000762939	-1.5598689696122
6.4349999427795	-1.5169254283912
6.4499998092651	-1.4772236036259
6.4650001525879	-1.4405343646185
6.4800000190735	-1.4066270022609
6.4949998855591	-1.3752792265549
6.5100002288818	-1.3462783168230
6.5250000953674	-1.3194116644401
6.5399999618530	-1.2944771140488
6.5549998283386	-1.2712810703124
6.5700001716614	-1.2496379965596
6.5850000381470	-1.2293722576566
6.5999999046326	-1.2103161935864
6.6149997711182	-1.1923146655948
6.6300001144409	-1.1752200351798
6.6449999809265	-1.1589051946029
6.6599998474121	-1.1432461912003
6.6750001907349	-1.1281366996843
6.6900000572205	-1.1134819950691
6.7049999237061	-1.0992018983776
6.7199997901917	-1.0852256814978
6.7350001335144	-1.0715026241856
6.7500000000000	-1.0579888538715
6.7649998664856	-1.0446553482310
6.7800002098083	-1.0314848477246
6.7950000762939	-1.0184723901000
6.8099999427795	-1.0056229431299
6.8249998092651	-0.99295144861386
6.8400001525879	-0.98048108984674
6.8550000190735	-0.96824471887919
6.8699998855591	-0.95628022426690
6.8850002288818	-0.94462999468947
6.9000000953674	-0.93334453575365
6.9149999618530	-0.92247379597072
6.9299998283386	-0.91207246187503
6.9450001716614	-0.90219534500987
6.9600000381470	-0.89289603782271
6.9749999046326	-0.88422917028702
6.9899997711182	-0.87624381275425
7.0050001144409	-0.86898995533954
7.0199999809265	-0.86250999610322
7.0349998474121	-0.85684301309214
7.0500001907349	-0.85202497544371
7.0650000572205	-0.84808001684859
7.0799999237061	-0.84503074503766
7.0949997901917	-0.84289255796704
7.1100001335144	-0.84167029177838
7.1250000000000	-0.84136258353579
7.1399998664856	-0.84196269123898
7.1550002098083	-0.84345479110070
7.1700000762939	-0.84581315241227
7.1849999427795	-0.84901024027442
7.1999998092651	-0.85300617740192
7.2150001525879	-0.85775725158317
7.2300000190735	-0.86321100696086
7.2449998855591	-0.86931488699714
7.2600002288818	-0.87600592902903
7.2750000953674	-0.88321999592657
7.2899999618530	-0.89088683372088
7.3049998283386	-0.89893915218118
7.3200001716614	-0.90730115471489
7.3350000381470	-0.91590055078383
7.3499999046326	-0.92466463063969
7.3649997711182	-0.93352253240422
7.3800001144409	-0.94240487478444
7.3949999809265	-0.95124401979565
7.4099998474121	-0.95998097093179
7.4250001907349	-0.96855640907537
7.4400000572205	-0.97691910790076
7.4549999237061	-0.98502519742425
7.4699997901917	-0.99283701499498
7.4850001335144	-1.0003239279384
7.5000000000000	-1.0074641528153
7.5149998664856	-1.0142425135593
7.5300002098083	-1.0206562535538
7.5450000762939	-1.0267044694689
7.5599999427795	-1.0324017097730
7.5749998092651	-1.0377649500593
7.5900001525879	-1.0428217988832
7.6050000190735	-1.0476070771786
7.6199998855591	-1.0521590816958
7.6350002288818	-1.0565259081008
7.6500000953674	-1.0607597805062
7.6649999618530	-1.0649152186328
7.6799998283386	-1.0690533826022
7.6950001716614	-1.0732350929417
7.7100000381470	-1.0775235665544
7.7249999046326	-1.0819865809712
7.7399997711182	-1.0866848612379
7.7550001144409	-1.0916836054354
7.7699999809265	-1.0970431649069
7.7849998474121	-1.1028220299671
7.8000001907349	-1.1090729253880
7.8150000572205	-1.1158479317042
7.8299999237061	-1.1231910455295
7.8449997901917	-1.1311415074410
7.8600001335144	-1.1397312088393
7.8750000000000	-1.1489874980437
7.8899998664856	-1.1589299195107
7.9050002098083	-1.1695682015487
7.9200000762939	-1.1809085890802
7.9349999427795	-1.1929462820966
7.9499998092651	-1.2056718949026
7.9650001525879	-1.2190660654758
7.9800000190735	-1.2331025080829
7.9949998855591	-1.2477506944072
8.0100002288818	-1.2629709075597
8.0249996185303	-1.2787179526609
8.0399999618530	-1.2949428087616
8.0550003051758	-1.3115890543562
8.0699996948242	-1.3285979190578
8.0850000381470	-1.3459054580634
8.1000003814697	-1.3634475257320
8.1149997711182	-1.3811583499860
8.1300001144409	-1.3989686230733
8.1450004577637	-1.4168119485319
8.1599998474121	-1.4346204995310
8.1750001907349	-1.4523340828775
8.1899995803833	-1.4698857811160
8.2049999237061	-1.4872185017118
8.2200002670288	-1.5042794135666
8.2349996566772	-1.5210213290493
8.2500000000000	-1.5373982234480
8.2650003433228	-1.5533755703810
8.2799997329712	-1.5689249482169
8.2950000762939	-1.5840193789608
8.3100004196167	-1.5986466548052
8.3249998092651	-1.6127972961509
8.3400001525879	-1.6264703680646
8.3549995422363	-1.6396718162974
8.3699998855591	-1.6524149693479
8.3850002288818	-1.6647190630927
8.3999996185303	-1.6766103059419
8.4149999618530	-1.6881215125991
8.4300003051758	-1.6992869751408
8.4449996948242	-1.7101477783485
8.4600000381470	-1.7207469980058
8.4750003814697	-1.7311310839760
8.4899997711182	-1.7413468797627
8.5050001144409	-1.7514460293276
8.5200004577637	-1.7614738942712
8.5349998474121	-1.7714802537254
8.5500001907349	-1.7815097261564
8.5649995803833	-1.7916076786316
8.5799999237061	-1.8018112311625
8.5950002670288	-1.8121587936719
