FREQ,S11
0,-18.83844429
0.015,-18.79435502
0.029999999,-18.6643141
0.045000002,-18.45469438
0.059999999,-18.17514873
0.075000003,-17.83744735
0.090000004,-17.45428207
0.104999997,-17.03825666
0.119999997,-16.60114348
0.135000005,-16.15344308
0.150000006,-15.70416764
0.165000007,-15.26080784
0.180000007,-14.82938613
0.194999993,-14.41457011
0.209999993,-14.01980034
0.224999994,-13.64742083
0.239999995,-13.29877423
0.254999995,-12.9743007
0.270000011,-12.67358592
0.284999996,-12.39542631
0.300000012,-12.13784385
0.314999998,-11.89811899
0.330000013,-11.67282628
0.344999999,-11.45788509
0.360000014,-11.2486565
0.375,-11.04008862
0.389999986,-10.82693757
0.405000001,-10.60404762
0.419999987,-10.36670456
0.435000002,-10.11100477
0.449999988,-9.83419838
0.465000004,-9.534951254
0.479999989,-9.213477543
0.495000005,-8.871497061
0.50999999,-8.512055392
0.524999976,-8.139209614
0.540000021,-7.757670509
0.555000007,-7.372428766
0.569999993,-6.988441406
0.584999979,-6.61037951
0.600000024,-6.242460649
0.61500001,-5.888351552
0.629999995,-5.551135501
0.644999981,-5.233317552
0.660000026,-4.93686016
0.675000012,-4.663245021
0.689999998,-4.413522551
0.704999983,-4.188377829
0.720000029,-3.988191241
0.735000014,-3.813083886
0.75,-3.662966323
0.764999986,-3.537572637
0.779999971,-3.436484106
0.795000017,-3.359151662
0.810000002,-3.304900882
0.824999988,-3.272930744
0.839999974,-3.262310475
0.855000019,-3.271964043
0.870000005,-3.300635722
0.88499999,-3.346877847
0.899999976,-3.4090019
0.915000021,-3.485065497
0.930000007,-3.572829389
0.944999993,-3.669745273
0.959999979,-3.772959059
0.975000024,-3.879327497
0.99000001,-3.985482165
1.004999995,-4.087922042
1.019999981,-4.183148282
1.034999967,-4.267840869
1.049999952,-4.339049682
1.065000057,-4.39439478
1.080000043,-4.432243438
1.095000029,-4.45183259
1.110000014,-4.453323131
1.125,-4.437781452
1.139999986,-4.407071078
1.154999971,-4.363700989
1.169999957,-4.310627826
1.184999943,-4.251068181
1.200000048,-4.188308921
1.215000033,-4.125562326
1.230000019,-4.065850333
1.245000005,-4.011936481
1.25999999,-3.966282671
1.274999976,-3.931028076
1.289999962,-3.908001872
1.304999948,-3.898732656
1.320000052,-3.904468806
1.335000038,-3.92620159
1.350000024,-3.964680599
1.36500001,-4.020430013
1.379999995,-4.093764299
1.394999981,-4.184782454
1.409999967,-4.293376242
1.424999952,-4.419223676
1.440000057,-4.561774368
1.455000043,-4.720251087
1.470000029,-4.893622923
1.485000014,-5.080607806
1.5,-5.279653976
1.514999986,-5.488941061
1.529999971,-5.706385318
1.544999957,-5.929643404
1.559999943,-6.156144645
1.575000048,-6.383119246
1.590000033,-6.607653978
1.605000019,-6.826750955
1.620000005,-7.037410769
1.63499999,-7.23670676
1.649999976,-7.421885599
1.664999962,-7.590443563
1.679999948,-7.740217423
1.695000052,-7.869441388
1.710000038,-7.976795045
1.725000024,-8.061426365
1.74000001,-8.122952077
1.754999995,-8.161438804
1.769999981,-8.177360827
1.784999967,-8.171560852
1.799999952,-8.145183913
1.815000057,-8.099630948
1.830000043,-8.036491881
1.845000029,-7.957494143
1.860000014,-7.864458482
1.875,-7.759243801
1.889999986,-7.643711091
1.904999971,-7.519680451
1.919999957,-7.388903704
1.934999943,-7.253028976
1.950000048,-7.113584332
1.965000033,-6.971951399
1.980000019,-6.829363249
1.995000005,-6.686888568
2.00999999,-6.54543725
2.025000095,-6.405757945
2.039999962,-6.268456938
2.055000067,-6.134000484
2.069999933,-6.002737289
2.085000038,-5.874916066
2.099999905,-5.750707619
2.11500001,-5.630223484
2.130000114,-5.51353706
2.144999981,-5.400700453
2.160000086,-5.291771122
2.174999952,-5.18682049
2.190000057,-5.085945593
2.204999924,-4.989287253
2.220000029,-4.897026353
2.234999895,-4.80939662
2.25,-4.726674111
2.265000105,-4.649180799
2.279999971,-4.57727928
2.295000076,-4.511360827
2.309999943,-4.451833916
2.325000048,-4.399123527
2.339999914,-4.353652411
2.355000019,-4.315831684
2.369999886,-4.286051567
2.38499999,-4.264673329
2.400000095,-4.252019494
2.414999962,-4.248365474
2.430000067,-4.253938535
2.444999933,-4.268903016
2.460000038,-4.293361861
2.474999905,-4.327359734
2.49000001,-4.370867458
2.505000114,-4.423789189
2.519999981,-4.485962563
2.535000086,-4.557156739
2.549999952,-4.637074884
2.565000057,-4.725361537
2.579999924,-4.821604809
2.595000029,-4.925346467
2.609999895,-5.036087257
2.625,-5.153307087
2.640000105,-5.276467162
2.654999971,-5.405033935
2.670000076,-5.538490616
2.684999943,-5.676354264
2.700000048,-5.818191542
2.714999914,-5.9636346
2.730000019,-6.112389707
2.744999886,-6.264248363
2.75999999,-6.419087813
2.775000095,-6.576872866
2.789999962,-6.737646297
2.805000067,-6.901515524
2.819999933,-7.068635818
2.835000038,-7.239185237
2.849999905,-7.413337832
2.86500001,-7.591229899
2.880000114,-7.772927708
2.894999981,-7.958394392
2.910000086,-8.147460019
2.924999952,-8.339778939
2.940000057,-8.534812987
2.954999924,-8.73181745
2.970000029,-8.929813433
2.984999895,-9.127604515
3,-9.323787157
3.015000105,-9.516785626
3.029999971,-9.70490176
3.045000076,-9.886391225
3.059999943,-10.05954589
3.075000048,-10.22279385
3.089999914,-10.37480856
3.105000019,-10.51459024
3.119999886,-10.6415594
3.13499999,-10.75560532
3.150000095,-10.8570993
3.164999962,-10.94688144
3.180000067,-11.0262058
3.194999933,-11.09665457
3.210000038,-11.16003896
3.224999905,-11.21828601
3.24000001,-11.27332353
3.255000114,-11.3269852
3.269999981,-11.3809082
3.285000086,-11.43647114
3.299999952,-11.4947277
3.315000057,-11.55637429
3.329999924,-11.62172304
3.345000029,-11.69068647
3.359999895,-11.76279465
3.375,-11.83720233
3.390000105,-11.91273471
3.404999971,-11.98793544
3.420000076,-12.06113667
3.434999943,-12.13055125
3.450000048,-12.19436917
3.464999914,-12.25087451
3.480000019,-12.29855949
3.494999886,-12.33623385
3.50999999,-12.36311925
3.525000095,-12.3789074
3.539999962,-12.38379411
3.555000067,-12.37847322
3.569999933,-12.36409112
3.585000038,-12.34217606
3.599999905,-12.31454753
3.61500001,-12.28320885
3.630000114,-12.25025809
3.644999981,-12.21778751
3.660000086,-12.18781074
3.674999952,-12.16220616
3.690000057,-12.14267558
3.704999924,-12.13071627
3.720000029,-12.12761581
3.734999895,-12.13444977
3.75,-12.15209472
3.765000105,-12.18124538
3.779999971,-12.22244324
3.795000076,-12.27609194
3.809999943,-12.34249305
3.825000048,-12.42187852
3.839999914,-12.51444353
3.855000019,-12.62036961
3.869999886,-12.73987352
3.88499999,-12.87322863
3.900000095,-13.02080036
3.914999962,-13.18308289
3.930000067,-13.36072571
3.944999933,-13.55456678
3.960000038,-13.76565995
3.974999905,-13.99530567
3.99000001,-14.2450736
4.005000114,-14.51684465
4.019999981,-14.81283199
4.034999847,-15.13562616
4.050000191,-15.4882394
4.065000057,-15.8741573
4.079999924,-16.29742343
4.09499979,-16.76270825
4.110000134,-17.27542764
4.125,-17.84185576
4.139999866,-18.46925091
4.15500021,-19.16593744
4.170000076,-19.94123925
4.184999943,-20.80503485
4.199999809,-21.76630523
4.215000153,-22.82930369
4.230000019,-23.98417089
4.244999886,-25.18590392
4.260000229,-26.31511958
4.275000095,-27.1382757
4.289999962,-27.36399033
4.304999828,-26.87378312
4.320000172,-25.85293049
4.335000038,-24.59451598
4.349999905,-23.3030491
4.364999771,-22.07521992
4.380000114,-20.94467908
4.394999981,-19.91667636
4.409999847,-18.98549452
4.425000191,-18.14202469
4.440000057,-17.37681647
4.454999924,-16.68117761
4.46999979,-16.04749661
4.485000134,-15.4692449
4.5,-14.94086861
4.514999866,-14.45765619
4.53000021,-14.01560982
4.545000076,-13.61132689
4.559999943,-13.2419074
4.574999809,-12.90486524
4.590000153,-12.59807038
4.605000019,-12.31968219
4.619999886,-12.0681079
4.635000229,-11.8419622
4.650000095,-11.64003539
4.664999962,-11.46125817
4.679999828,-11.30468564
4.695000172,-11.16947089
4.710000038,-11.05485179
4.724999905,-10.96012849
4.739999771,-10.88465904
4.755000114,-10.82784446
4.769999981,-10.78912026
4.784999847,-10.76794999
4.800000191,-10.76382647
4.815000057,-10.77626488
4.829999924,-10.80480675
4.84499979,-10.84902441
4.860000134,-10.90852548
4.875,-10.98296716
4.889999866,-11.07206172
4.90500021,-11.17560276
4.920000076,-11.29347222
4.934999943,-11.4256639
4.949999809,-11.57231134
4.965000153,-11.7336972
4.980000019,-11.91028465
4.994999886,-12.10273354
5.010000229,-12.31191441
5.025000095,-12.53891803
5.039999962,-12.78506241
5.054999828,-13.05187437
5.070000172,-13.34107014
5.085000038,-13.65450066
5.099999905,-13.99405228
5.114999771,-14.36150152
5.130000114,-14.75826457
5.144999981,-15.18500172
5.159999847,-15.64099526
5.175000191,-16.12319028
5.190000057,-16.62475895
5.204999924,-17.13308921
5.21999979,-17.62728616
5.235000134,-18.07582291
5.25,-18.43605181
5.264999866,-18.65840168
5.28000021,-18.69746372
5.295000076,-18.5275115
5.309999943,-18.15348306
5.324999809,-17.60900887
5.340000153,-16.94308848
5.355000019,-16.20512618
5.369999886,-15.4357723
5.385000229,-14.66432388
5.400000095,-13.90995175
5.414999962,-13.18421104
5.429999828,-12.49341129
5.445000172,-11.84045809
5.460000038,-11.22613069
5.474999905,-10.64991964
5.489999771,-10.11056228
5.505000114,-9.606380443
5.519999981,-9.135486916
5.534999847,-8.695911995
5.550000191,-8.28567399
5.565000057,-7.90283659
5.579999924,-7.545516889
5.59499979,-7.211913098
5.610000134,-6.900312462
5.625,-6.609082892
5.639999866,-6.336689391
5.65500021,-6.081688357
5.670000076,-5.842727187
5.684999943,-5.618551041
5.699999809,-5.407992224
5.715000153,-5.209983817
5.730000019,-5.023544098
5.744999886,-4.847790869
5.760000229,-4.681925765
5.775000095,-4.525241486
5.789999962,-4.377115384
5.804999828,-4.236999777
5.820000172,-4.104419819
5.835000038,-3.978966991
5.849999905,-3.860291391
5.864999771,-3.74808861
5.880000114,-3.642100172
5.894999981,-3.542088117
5.909999847,-3.447845526
5.925000191,-3.359172448
5.940000057,-3.275875254
5.954999924,-3.197759778
5.96999979,-3.124618412
5.985000134,-3.05623269
6,-2.992368254
6.014999866,-2.932765091
6.03000021,-2.877152197
6.045000076,-2.825232804
6.059999943,-2.776697871
6.074999809,-2.731225285
6.090000153,-2.688483288
6.105000019,-2.648141944
6.119999886,-2.609873922
6.135000229,-2.573366416
6.150000095,-2.538327893
6.164999962,-2.504489592
6.179999828,-2.471618956
6.195000172,-2.439518319
6.210000038,-2.408035029
6.224999905,-2.377057104
6.239999771,-2.346517136
6.255000114,-2.316389297
6.269999981,-2.28668735
6.284999847,-2.257457014
6.300000191,-2.228774464
6.315000057,-2.200732678
6.329999924,-2.173439135
6.34499979,-2.147004378
6.360000134,-2.121532198
6.375,-2.097118341
6.389999866,-2.07383925
6.40500021,-2.05174587
6.420000076,-2.030860924
6.434999943,-2.011177557
6.449999809,-1.992657582
6.465000153,-1.975230088
6.480000019,-1.958798713
6.494999886,-1.943237921
6.510000229,-1.928407796
6.525000095,-1.914151318
6.539999962,-1.900309504
6.554999828,-1.8867203
6.570000172,-1.873235242
6.585000038,-1.859721097
6.599999905,-1.846066414
6.614999771,-1.832189957
6.630000114,-1.818045836
6.644999981,-1.80361791
6.659999847,-1.788925952
6.675000191,-1.77402863
6.690000057,-1.759013357
6.704999924,-1.743991642
6.71999979,-1.729100405
6.735000134,-1.71448235
6.75,-1.70029555
6.764999866,-1.686688972
6.78000021,-1.673804391
6.795000076,-1.661766476
6.809999943,-1.650674095
6.824999809,-1.640601591
6.840000153,-1.631586724
6.855000019,-1.623635464
6.869999886,-1.616716711
6.885000229,-1.610765272
6.900000095,-1.605683505
6.914999962,-1.601348339
6.929999828,-1.597611834
6.945000172,-1.594313457
6.960000038,-1.591284284
6.974999905,-1.58835359
6.989999771,-1.585364094
7.005000114,-1.58217077
7.019999981,-1.578653526
7.034999847,-1.574720051
7.050000191,-1.570314399
7.065000057,-1.565413824
7.079999924,-1.5600357
7.09499979,-1.554230067
7.110000134,-1.548081423
7.125,-1.541702792
7.139999866,-1.535226803
7.15500021,-1.528802857
7.170000076,-1.522588264
7.184999943,-1.516734283
7.199999809,-1.511388176
7.215000153,-1.506677942
7.230000019,-1.502707504
7.244999886,-1.499551999
7.260000229,-1.497253532
7.275000095,-1.495819516
7.289999962,-1.495222983
7.304999828,-1.495398408
7.320000172,-1.49624952
7.335000038,-1.497657292
7.349999905,-1.499472059
7.364999771,-1.50153772
7.380000114,-1.50368979
7.394999981,-1.505761551
7.409999847,-1.507600663
7.425000191,-1.509071356
7.440000057,-1.51006197
7.454999924,-1.510493473
7.46999979,-1.510319301
7.485000134,-1.509533462
7.5,-1.508166135
7.514999866,-1.506282169
7.53000021,-1.503982067
7.545000076,-1.501392428
7.559999943,-1.498660891
7.574999809,-1.495950077
7.590000153,-1.493425981
7.605000019,-1.491250677
7.619999886,-1.489578311
7.635000229,-1.488537599
7.650000095,-1.488239351
7.664999962,-1.488754422
7.679999828,-1.490124387
7.695000172,-1.492350934
7.710000038,-1.495400613
7.724999905,-1.499201842
7.739999771,-1.503649102
7.755000114,-1.508612007
7.769999981,-1.513938666
7.784999847,-1.519461926
7.800000191,-1.525011038
7.815000057,-1.530416169
7.829999924,-1.535521586
7.84499979,-1.54019177
7.860000134,-1.544316902
7.875,-1.54782171
7.889999866,-1.550666625
7.90500021,-1.552854381
7.920000076,-1.554422638
7.934999943,-1.555449977
7.949999809,-1.556045955
7.965000153,-1.556348029
7.980000019,-1.556518143
7.994999886,-1.556723133
8.010000229,-1.557139582
8.024999619,-1.55793642
8.039999962,-1.559267804
8.055000305,-1.561267972
8.069999695,-1.56404098
8.085000038,-1.567657983
8.100000381,-1.572153171
8.114999771,-1.577521851
8.130000114,-1.58371808
8.145000458,-1.590657179
8.159999847,-1.598227042
8.175000191,-1.606281052
8.18999958,-1.61465655
8.204999924,-1.623174279
8.220000267,-1.631653171
8.234999657,-1.639917104
8.25,-1.6478027
8.265000343,-1.655172807
8.279999733,-1.661916211
8.295000076,-1.667958247
8.31000042,-1.673265967
8.324999809,-1.677846723
8.340000153,-1.681747168
8.354999542,-1.685055182
8.369999886,-1.687891241
8.385000229,-1.690406383
8.399999619,-1.69276619
8.414999962,-1.695154034
8.430000305,-1.697751345
8.444999695,-1.700734149
8.460000038,-1.704261205
8.475000381,-1.708469496
8.489999771,-1.713461582
8.505000114,-1.71930821
8.520000458,-1.726033809
8.534999847,-1.733627958
8.550000191,-1.742034534
8.56499958,-1.751160084
8.579999924,-1.760877129
8.595000267,-1.771029782
8.609999657,-1.781439709
8.625,-1.791916956
8.640000343,-1.802270294
8.654999733,-1.812313994
8.670000076,-1.821877584
8.68500042,-1.830816649
8.699999809,-1.839016549
8.715000153,-1.846405099
8.729999542,-1.852947544
8.744999886,-1.858653651
8.760000229,-1.863579386
8.774999619,-1.86781724
8.789999962,-1.871496381
8.805000305,-1.874771814
8.819999695,-1.877822742
8.835000038,-1.880832988
8.850000381,-1.883994521
8.864999771,-1.887487056
8.880000114,-1.891470993
8.895000458,-1.896085205
8.909999847,-1.901429687
8.925000191,-1.90756973
8.93999958,-1.914527439
8.954999924,-1.922282082
8.970000267,-1.930768361
8.984999657,-1.93988292
9,-1.949488282
9.015000343,-1.959414486
9.029999733,-1.969472926
9.045000076,-1.979463637
9.06000042,-1.989183117
9.074999809,-1.998436173
9.090000153,-2.007047718
9.104999542,-2.014866492
9.119999886,-2.021777205
9.135000229,-2.027704755
9.149999619,-2.032615684
9.164999962,-2.036525363
9.180000305,-2.039490922
9.194999695,-2.041611981
9.210000038,-2.043024856
9.225000381,-2.043894632
9.239999771,-2.044403661
9.255000114,-2.044748657
9.270000458,-2.045127272
9.284999847,-2.045722295
9.300000191,-2.046703578
9.31499958,-2.048209498
9.329999924,-2.05034674
9.345000267,-2.053180779
9.359999657,-2.05673359
9.375,-2.060984165
9.390000343,-2.065868449
9.404999733,-2.071278844
9.420000076,-2.077079025
9.43500042,-2.083095351
9.449999809,-2.089142396
9.465000153,-2.095018451
9.479999542,-2.100523166
9.494999886,-2.105466243
9.510000229,-2.109672115
9.524999619,-2.112997486
9.539999962,-2.115334271
9.555000305,-2.116614473
9.569999695,-2.116812253
9.585000038,-2.115953968
9.600000381,-2.114106379
9.614999771,-2.111378218
9.630000114,-2.107915385
9.645000458,-2.103893778
9.659999847,-2.099504786
9.675000191,-2.094953947
9.68999958,-2.090443597
9.704999924,-2.08616481
9.720000267,-2.082292012
9.734999657,-2.078969787
9.75,-2.076305986
9.765000343,-2.074373509
9.779999733,-2.073195024
9.795000076,-2.072755517
9.81000042,-2.072992052
9.824999809,-2.073803136
9.840000153,-2.075055503
9.854999542,-2.076585157
9.869999886,-2.078207958
9.885000229,-2.079732133
9.899999619,-2.080964593
9.914999962,-2.081721026
9.930000305,-2.08183795
9.944999695,-2.08118046
9.960000038,-2.079648018
9.975000381,-2.077179669
9.989999771,-2.073762392
10.00500011,-2.069428258
10.02000046,-2.064250986
10.03499985,-2.058348158
10.05000019,-2.051868768
10.06499958,-2.044993969
10.07999992,-2.037922062
10.09500027,-2.030858261
10.10999966,-2.024007626
10.125,-2.017568322
10.14000034,-2.011712757
10.15499973,-2.006589223
10.17000008,-2.002307402
10.18500042,-1.998941952
10.19999981,-1.99652123
10.21500015,-1.995030284
10.22999954,-1.994414286
10.24499989,-1.994573628
10.26000023,-1.995379577
10.27499962,-1.996673666
10.28999996,-1.998278658
10.30500031,-2.000006162
10.31999969,-2.001664533
10.33500004,-2.003076315
10.35000038,-2.004080305
10.36499977,-2.004540417
10.38000011,-2.004356606
10.39500046,-2.00347052
10.40999985,-2.001861095
10.42500019,-1.99955883
10.43999958,-1.996631226
10.45499992,-1.993190052
10.47000027,-1.989377567
10.48499966,-1.985364564
10.5,-1.981340632
10.51500034,-1.977504275
10.52999973,-1.97405161
10.54500008,-1.971165487
10.56000042,-1.969015443
10.57499981,-1.967736499
10.59000015,-1.967431953
10.60499954,-1.968165157
10.61999989,-1.969953385
10.63500023,-1.972775116
10.64999962,-1.976562121
10.66499996,-1.981209131
10.68000031,-1.986573694
10.69499969,-1.992485998
10.71000004,-1.998755774
10.72500038,-2.00518385
10.73999977,-2.011567038
10.75500011,-2.017714908
10.77000046,-2.023451438
10.78499985,-2.028631507
10.80000019,-2.033142683
10.81499958,-2.036914681
10.82999992,-2.039921432
10.84500027,-2.042182606
10.85999966,-2.043760791
10.875,-2.044763524
10.89000034,-2.045328701
10.90499973,-2.045626261
10.92000008,-2.045842619
10.93500042,-2.046172534
10.94999981,-2.04681228
10.96500015,-2.047944251
10.97999954,-2.049729115
10.99499989,-2.052298438
11.01000023,-2.055746967
11.02499962,-2.060127555
11.03999996,-2.065445695
11.05500031,-2.071664795
11.06999969,-2.078697877
11.08500004,-2.086418875
11.10000038,-2.094664907
11.11499977,-2.103243664
11.13000011,-2.111939292
11.14500046,-2.120530699
11.15999985,-2.128792027
11.17500019,-2.13650969
11.18999958,-2.143492282
11.20499992,-2.14957776
11.22000027,-2.154644191
11.23499966,-2.158614224
11.25,-2.161458932
11.26500034,-2.163195596
11.27999973,-2.16389592
11.29500008,-2.163670041
11.31000042,-2.16266623
11.32499981,-2.161061912
11.34000015,-2.159051644
11.35499954,-2.156838305
11.36999989,-2.154619405
11.38500023,-2.152580905
11.39999962,-2.150882774
11.41499996,-2.149646746
11.43000031,-2.148959934
11.44499969,-2.148859215
11.46000004,-2.149338377
11.47500038,-2.150339033
11.48999977,-2.151759514
11.50500011,-2.15345524
11.52000046,-2.155247259
11.53499985,-2.156932607
11.55000019,-2.158290252
11.56499958,-2.159100605
11.57999992,-2.159148979
11.59500027,-2.158236699
11.60999966,-2.156199422
11.625,-2.152913533
11.64000034,-2.148299356
11.65499973,-2.142330136
11.67000008,-2.135032786
11.68500042,-2.126490126
11.69999981,-2.116827911
11.71500015,-2.106222245
11.72999954,-2.094878097
