Frequency,S_Parameter,BGL,S11(Linear)
1,-3.693751026,80,0.4271937571
1.003999949,-3.755708886,80,0.4211425393
1.008000016,-3.819680686,80,0.4149845532
1.011999965,-3.88571223,80,0.4087227174
1.016000032,-3.953869167,80,0.40235841
1.019999981,-4.024244033,80,0.3958909708
1.024000049,-4.096952325,80,0.3893182545
1.027999997,-4.172146451,80,0.3826355833
1.031999946,-4.250001244,80,0.3758372967
1.036000013,-4.330726776,80,0.3689158567
1.039999962,-4.414554383,80,0.3618633186
1.04400003,-4.501737615,80,0.3546714566
1.047999978,-4.592540481,80,0.3473329236
1.052000046,-4.687241927,80,0.3398410269
1.055999994,-4.786120055,80,0.3321911014
1.059999943,-4.889450239,80,0.3243806772
1.06400001,-4.997502995,80,0.3164096355
1.067999959,-5.110539016,80,0.308280531
1.072000027,-5.228809208,80,0.2999984972
1.075999975,-5.352556197,80,0.2915710362
1.080000043,-5.482018094,80,0.2830076601
1.083999991,-5.617432537,80,0.2743195415
1.088000059,-5.759045822,80,0.2655188863
1.092000008,-5.907116307,80,0.2566187406
1.095999956,-6.061927695,80,0.2476322653
1.100000024,-6.223789102,80,0.238572889
1.103999972,-6.39304962,80,0.2294536856
1.10800004,-6.570092852,80,0.2202879365
1.111999989,-6.755339185,80,0.2110892328
1.116000056,-6.949238666,80,0.2018720222
1.120000005,-7.152260132,80,0.1926522062
1.123999953,-7.364870676,80,0.1834479793
1.128000021,-7.587502013,80,0.1742809019
1.131999969,-7.82052106,80,0.165176361
1.136000037,-8.064162467,80,0.1561650172
1.139999986,-8.318474208,80,0.1472829856
1.144000053,-8.583218851,80,0.1385728391
1.148000002,-8.857773826,80,0.130083621
1.15199995,-9.140987883,80,0.1218712349
1.156000018,-9.43102044,80,0.11399819
1.159999967,-9.725153118,80,0.1065331303
1.164000034,-10.01956873,80,0.099550427
1.167999983,-10.30913805,80,0.09312926923
1.172000051,-10.58722746,80,0.0873528853
1.175999999,-10.84560603,80,0.08230749735
1.179999948,-11.07452744,80,0.07808133966
1.184000015,-11.26308891,80,0.07476375566
1.187999964,-11.39996495,80,0.07244418073
1.192000031,-11.4745182,80,0.07121117962
1.19599998,-11.47815687,80,0.07115154137
1.200000048,-11.40566139,80,0.07234922132
1.203999996,-11.25610199,80,0.07488413218
1.207999945,-11.03303514,80,0.07883090029
1.212000012,-10.74393252,80,0.08425714674
1.215999961,-10.39901909,80,0.09122168528
1.220000029,-10.00989982,80,0.09977230787
1.223999977,-9.588298817,80,0.1099436417
1.228000045,-9.145156552,80,0.1217543103
1.231999993,-8.69006657,80,0.1352051838
1.235999942,-8.231090764,80,0.1502764488
1.24000001,-7.774740886,80,0.1669267398
1.243999958,-7.326133287,80,0.1850915836
1.248000026,-6.889177481,80,0.2046832254
1.251999974,-6.466769157,80,0.225591683
1.256000042,-6.060979425,80,0.247686341
1.25999999,-5.673220681,80,0.2708182528
1.264000058,-5.304373892,80,0.2948238484
1.268000007,-4.954893485,80,0.3195292732
1.271999955,-4.6249066,80,0.3447540208
1.276000023,-4.314275271,80,0.3703159967
1.279999971,-4.02265683,80,0.3960356822
1.284000039,-3.749551961,80,0.4217400099
1.287999988,-3.494344457,80,0.447265659
1.292000055,-3.256331017,80,0.4724620155
1.296000004,-3.034750107,80,0.4971929814
1.299999952,-2.828804913,80,0.5213381526
1.30400002,-2.637679178,80,0.5447937069
1.307999969,-2.460554125,80,0.5674721959
1.312000036,-2.296622064,80,0.5893018352
1.315999985,-2.14509087,80,0.6102262884
1.320000052,-2.005195623,80,0.6302029586
1.324000001,-1.876200853,80,0.649202098
1.327999949,-1.757407119,80,0.6672049936
1.332000017,-1.648149903,80,0.6842030562
1.335999966,-1.547801805,80,0.7001963129
1.340000033,-1.455773738,80,0.7151919643
1.343999982,-1.371513113,80,0.7292034063
1.34800005,-1.29450126,80,0.7422494321
1.351999998,-1.224253489,80,0.7543530509
1.355999947,-1.160320091,80,0.7655401817
1.360000014,-1.102275849,80,0.7758404437
1.363999963,-1.049727216,80,0.7852849575
1.368000031,-1.002303676,80,0.7939070022
1.371999979,-0.9596588147,80,0.8017410463
1.376000047,-0.9214672654,80,0.808822592
1.379999995,-0.8874261094,80,0.8151872699
1.383999944,-0.8572467488,80,0.8208717789
1.388000011,-0.8306601374,80,0.8259123995
1.39199996,-0.8074136777,80,0.8303451097
1.396000028,-0.7872708383,80,0.8342052451
1.399999976,-0.770008403,80,0.8375276616
1.404000044,-0.7554196014,80,0.8403458117
1.407999992,-0.743312483,80,0.8426917685
1.411999941,-0.7335089583,80,0.8445961632
1.416000009,-0.7258477563,80,0.8460873938
1.419999957,-0.7201797256,80,0.8471923538
1.424000025,-0.7163723884,80,0.847935389
1.427999973,-0.7143062483,80,0.8483388872
1.432000041,-0.7138756741,80,0.8484229985
1.43599999,-0.7149887897,80,0.8482055719
1.440000057,-0.7175641535,80,0.8477027356
1.444000006,-0.7215334583,80,0.8469283179
1.447999954,-0.7268346427,80,0.8458951516
1.452000022,-0.7334149431,80,0.844614447
1.45599997,-0.7412271613,80,0.8430964951
1.460000038,-0.7502276271,80,0.8413510427
1.463999987,-0.7603760823,80,0.8393872957
1.468000054,-0.771634155,80,0.8372141975
1.472000003,-0.7839599969,80,0.8348414435
1.475999951,-0.7973147111,80,0.8322782185
1.480000019,-0.8116566827,80,0.8295342686
1.483999968,-0.8269405524,80,0.8266200685
1.488000035,-0.8431215427,80,0.8235459689
1.491999984,-0.8601538945,80,0.8203224753
1.496000051,-0.8779901531,80,0.8169603604
1.5,-0.8965868121,80,0.8134695834
1.503999949,-0.9158990756,80,0.8098602672
1.508000016,-0.9358876869,80,0.8061414113
1.511999965,-0.9565180353,80,0.8023210681
1.516000032,-0.9777582351,80,0.7984067068
1.519999981,-0.9995849856,80,0.7944041448
1.524000049,-1.021980015,80,0.7903182277
1.527999997,-1.044931348,80,0.7861526184
1.531999946,-1.068430149,80,0.7819103919
1.536000013,-1.092472703,80,0.7775936934
1.539999962,-1.117057369,80,0.7732043045
1.54400003,-1.142183446,80,0.7687438517
1.547999978,-1.167847676,80,0.7642144274
1.552000046,-1.194044464,80,0.7596185357
1.555999994,-1.220763108,80,0.7549595605
1.559999943,-1.247985871,80,0.7502420688
1.56400001,-1.275690167,80,0.7454713947
1.567999959,-1.303842546,80,0.7406546356
1.572000027,-1.332401225,80,0.7358001592
1.575999975,-1.361321511,80,0.7309166397
1.580000043,-1.390545797,80,0.7260147103
1.583999991,-1.420015932,80,0.7211048338
1.588000059,-1.449669424,80,0.7161979237
1.592000008,-1.47944353,80,0.7113046486
1.595999956,-1.509273999,80,0.7064356378
1.600000024,-1.539101065,80,0.7016005059
1.603999972,-1.568869623,80,0.6968078549
1.60800004,-1.598528004,80,0.6920654996
1.611999989,-1.628032904,80,0.6873797118
1.616000056,-1.65734485,80,0.6827559837
1.620000005,-1.686431386,80,0.6781985569
1.623999953,-1.715262797,80,0.6737111272
1.628000021,-1.74381362,80,0.6692966295
1.631999969,-1.772059658,80,0.6649577227
1.636000037,-1.799974424,80,0.6606973389
1.639999986,-1.827530613,80,0.6565184548
1.644000053,-1.854697255,80,0.6524245197
1.648000002,-1.881438218,80,0.6484196661
1.65199995,-1.907713883,80,0.6445084441
1.656000018,-1.933479245,80,0.6406960928
1.659999967,-1.958687238,80,0.6369880372
1.664000034,-1.983289622,80,0.6333897599
1.667999983,-2.007238219,80,0.629906628
1.672000051,-2.030488961,80,0.6265433198
1.675999999,-2.053004823,80,0.6233034313
1.679999948,-2.074755979,80,0.6201894898
1.684000015,-2.095726393,80,0.6172020511
1.687999964,-2.115910124,80,0.6143402747
1.692000031,-2.135316218,80,0.6116012694
1.69599998,-2.153970763,80,0.6089798511
1.700000048,-2.171907707,80,0.6064698696
1.703999996,-2.189178553,80,0.6040628741
1.707999945,-2.205841386,80,0.6017496709
1.712000012,-2.221962642,80,0.5995200828
1.715999961,-2.237613122,80,0.5973635067
1.720000029,-2.252861973,80,0.5952697353
1.723999977,-2.26778209,80,0.5932282045
1.728000045,-2.282435846,80,0.5912299355
1.731999993,-2.296882941,80,0.5892664374
1.735999942,-2.311172332,80,0.5873307874
1.74000001,-2.32534628,80,0.5854170569
1.743999958,-2.3394378,80,0.583520637
1.748000026,-2.353472898,80,0.5816379167
1.751999974,-2.367474499,80,0.5797657427
1.756000042,-2.381456996,80,0.5779021369
1.75999999,-2.395436869,80,0.5760448696
1.764000058,-2.409432376,80,0.5741915042
1.768000007,-2.423463169,80,0.5723394517
1.771999955,-2.437556348,80,0.5704851779
1.776000023,-2.451744546,80,0.5686244705
1.779999971,-2.466068564,80,0.5667521074
1.784000039,-2.480575038,80,0.5648621779
1.787999988,-2.495318638,80,0.562947813
1.792000055,-2.510356759,80,0.5610018896
1.796000004,-2.525750794,80,0.5590168782
1.799999952,-2.541560651,80,0.5569855585
1.80400002,-2.557845583,80,0.554900916
1.807999969,-2.574656716,80,0.5527570984
1.812000036,-2.592040415,80,0.5505489752
1.815999985,-2.61003266,80,0.5482728418
1.820000052,-2.628657337,80,0.5459266134
1.824000001,-2.647931642,80,0.5435091199
1.827999949,-2.667856709,80,0.541021257
1.832000017,-2.68843009,80,0.5384643942
1.835999966,-2.709636976,80,0.5358414463
1.840000033,-2.731461482,80,0.5331554486
1.843999982,-2.753885284,80,0.5304097169
1.84800005,-2.776892118,80,0.5276072908
1.851999998,-2.800467335,80,0.5247509899
1.855999947,-2.824605178,80,0.5218425434
1.860000014,-2.849307688,80,0.5188827478
1.863999963,-2.874589384,80,0.5158709373
1.868000031,-2.900470819,80,0.5128057877
1.871999979,-2.926987633,80,0.5096842773
1.876000047,-2.954179873,80,0.5065029891
1.879999995,-2.98209663,80,0.503257594
1.883999944,-3.010787386,80,0.4999438858
1.888000011,-3.040305554,80,0.4965573842
1.89199996,-3.070699556,80,0.4930943705
1.896000028,-3.102011623,80,0.4895520096
1.899999976,-3.134276557,80,0.4859284697
1.904000044,-3.167518704,80,0.4822232321
1.907999992,-3.201750129,80,0.4784372518
1.911999941,-3.236970265,80,0.4745729425
1.916000009,-3.273170397,80,0.4706336333
1.919999957,-3.31033017,80,0.4666239042
1.924000025,-3.348421906,80,0.4625490672
1.927999973,-3.387420341,80,0.4584140986
1.932000041,-3.427291099,80,0.4542248499
1.93599999,-3.468013056,80,0.4499856811
1.940000057,-3.509567235,80,0.4457006593
1.944000006,-3.551943426,80,0.441372893
1.947999954,-3.595149427,80,0.4370036429
1.952000022,-3.639199498,80,0.4325935604
1.95599997,-3.684124317,80,0.4281417386
1.960000038,-3.729964556,80,0.4236464236
1.963999987,-3.776768596,80,0.4191052879
1.968000054,-3.824591747,80,0.4145155482
1.972000003,-3.873488797,80,0.409874708
1.975999951,-3.923512914,80,0.405180661
1.980000019,-3.974708598,80,0.4004323356
1.983999968,-4.027109082,80,0.3956298869
1.988000035,-4.080732903,80,0.3907749442
1.991999984,-4.135580564,80,0.385870825
1.996000051,-4.191639021,80,0.3809220368
2,-4.248871122,80,0.3759351098
2.003999949,-4.307229752,80,0.3709172445
2.007999897,-4.366653168,80,0.3658766409
2.012000084,-4.427069495,80,0.3608220341
2.016000032,-4.488403344,80,0.3557620882
2.019999981,-4.550580466,80,0.3507049965
2.023999929,-4.613531001,80,0.3456582285
2.028000116,-4.677194553,80,0.340628157
2.032000065,-4.741521278,80,0.3356200303
2.036000013,-4.806474543,80,0.3306378328
2.039999962,-4.872030908,80,0.3256843643
2.04399991,-4.938178585,80,0.3207614304
2.048000097,-5.004912133,80,0.3158702955
2.052000046,-5.072231072,80,0.3110118186
2.055999994,-5.140126431,80,0.3061874296
2.059999943,-5.208586492,80,0.3013986834
2.063999891,-5.27758079,80,0.296648339
2.068000078,-5.347055836,80,0.2919405463
2.072000027,-5.41693767,80,0.2872805562
2.075999975,-5.487119415,80,0.2826754281
2.079999924,-5.55746615,80,0.2781335538
2.084000111,-5.627817037,80,0.2736643943
2.088000059,-5.697984148,80,0.2692784416
2.092000008,-5.767763549,80,0.2649864366
2.095999956,-5.836939074,80,0.2607991025
2.099999905,-5.905290882,80,0.2567266252
2.104000092,-5.972603596,80,0.2527782136
2.10800004,-6.038677299,80,0.2489615448
2.111999989,-6.103329759,80,0.2452827598
2.115999937,-6.166407965,80,0.241745948
2.119999886,-6.22778387,80,0.2383535436
2.124000072,-6.287361189,80,0.2351060912
2.128000021,-6.3450681,80,0.2320027806
2.131999969,-6.400858987,80,0.2290414589
2.135999918,-6.454699931,80,0.2262194837
2.140000105,-6.50656953,80,0.2235337207
2.144000053,-6.556446157,80,0.2209812288
2.148000002,-6.604302347,80,0.2185595387
2.15199995,-6.650103004,80,0.216266723
2.155999899,-6.69379581,80,0.2141018495
2.160000086,-6.735317531,80,0.2120646338
2.164000034,-6.774589605,80,0.210155635
2.167999983,-6.811531432,80,0.2083755969
2.171999931,-6.846059524,80,0.2067254984
2.176000118,-6.878104508,80,0.205205761
2.180000067,-6.907617486,80,0.2038159894
2.184000015,-6.934578192,80,0.2025546328
2.187999964,-6.959010529,80,0.2014183097
2.191999912,-6.980982024,80,0.2004018829
2.196000099,-7.00061242,80,0.1994980973
2.200000048,-7.0180702,80,0.1986977641
2.203999996,-7.033574988,80,0.1979896561
2.207999945,-7.047384255,80,0.1973611079
2.211999893,-7.059786531,80,0.196798302
2.21600008,-7.071091473,80,0.1962866905
2.220000029,-7.081613587,80,0.1958117016
2.223999977,-7.091661913,80,0.1953591733
2.227999926,-7.101526691,80,0.1949159284
2.232000113,-7.111471011,80,0.1944701275
2.236000061,-7.121723193,80,0.1940115926
2.24000001,-7.132469735,80,0.1935321078
2.243999958,-7.143859621,80,0.1930252119
2.247999907,-7.156000516,80,0.1924863549
2.252000093,-7.168969724,80,0.191912396
2.256000042,-7.182821147,80,0.1913012841
2.25999999,-7.197592023,80,0.1906517507
2.263999939,-7.213321028,80,0.1899625091
2.267999887,-7.230048498,80,0.1892322487
2.272000074,-7.247838543,80,0.1884586803
2.276000023,-7.266778085,80,0.1876386033
2.279999971,-7.28699025,80,0.1867673579
2.28399992,-7.308628613,80,0.1858391193
2.288000107,-7.331880405,80,0.1848468097
2.292000055,-7.356960715,80,0.1837824042
2.296000004,-7.384106731,80,0.1826372364
2.299999952,-7.413565232,80,0.1814025872
2.303999901,-7.445577093,80,0.180070384
2.308000088,-7.480374611,80,0.1786333484
2.312000036,-7.518154191,80,0.1770861438
2.315999985,-7.559075028,80,0.1754254088
2.319999933,-7.60324924,80,0.1736501153
2.323999882,-7.650725635,80,0.1717621377
2.328000069,-7.701496058,80,0.1697658742
2.332000017,-7.755492426,80,0.1676682214
2.335999966,-7.812588843,80,0.1654783248
2.339999914,-7.872616355,80,0.1632068432
2.344000101,-7.935369507,80,0.1608655504
2.34800005,-8.000622623,80,0.1584665992
2.351999998,-8.068154108,80,0.1560215504
2.355999947,-8.13775056,80,0.1535412048
2.359999895,-8.209233977,80,0.1510346531
2.364000082,-8.282467908,80,0.1485091489
2.368000031,-8.35736919,80,0.1459698229
2.371999979,-8.433909837,80,0.1434197682
2.375999928,-8.512113812,80,0.1408603032
2.380000114,-8.592044257,80,0.1382915277
2.384000063,-8.673791124,80,0.135712824
2.388000011,-8.757444123,80,0.1331237638
2.39199996,-8.843075032,80,0.1305246378
2.395999908,-8.930696962,80,0.1279176004
2.400000095,-9.02025125,80,0.125306868
2.404000044,-9.111571359,80,0.1226995201
2.407999992,-9.204372427,80,0.1201054618
2.411999941,-9.29823529,80,0.1175375059
2.415999889,-9.392604219,80,0.1150110526
2.420000076,-9.486805352,80,0.1125432532
2.424000025,-9.580069029,80,0.1101521801
2.427999973,-9.671559855,80,0.1078559267
2.431999922,-9.76043886,80,0.1056710722
2.436000109,-9.845913553,80,0.1036116631
2.440000057,-9.927304781,80,0.101687957
2.444000006,-10.00409593,80,0.09990573216
2.447999954,-10.0760099,80,0.09826503423
2.451999903,-10.1430134,80,0.09676062381
2.45600009,-10.20536358,80,0.09538138889
2.460000038,-10.26358192,80,0.09411130772
2.463999987,-10.31844196,80,0.09292997142
2.467999935,-10.37091649,80,0.09181388209
2.471999884,-10.42212005,80,0.09073774773
2.476000071,-10.47321846,80,0.08967639758
2.480000019,-10.5253757,80,0.08860585681
2.483999968,-10.57964869,80,0.08750545577
2.487999916,-10.63693211,80,0.0863588378
2.492000103,-10.69788282,80,0.08515530688
2.496000051,-10.76286208,80,0.083890695
2.5,-10.83190348,80,0.08256759835
2.503999949,-10.90467388,80,0.08119562186
2.507999897,-10.98047455,80,0.07979074951
2.512000084,-11.05824458,80,0.07837463693
2.516000032,-11.13661764,80,0.07697296851
2.519999981,-11.21396057,80,0.07561430122
2.523999929,-11.28847259,80,0.07432805039
2.528000116,-11.35829594,80,0.07314260194
2.532000065,-11.42166123,80,0.07208316987
2.536000013,-11.47698572,80,0.07117073123
2.539999962,-11.52305102,80,0.07041981789
2.54399991,-11.55906473,80,0.06983827868
2.548000097,-11.58475949,80,0.06942630483
2.552000046,-11.6004056,80,0.0691766362
2.555999994,-11.6067924,80,0.06907497875
2.559999943,-11.6051576,80,0.06910098537
2.563999891,-11.59708854,80,0.06922949222
2.568000078,-11.58439961,80,0.06943205813
2.572000027,-11.56900839,80,0.06967855912
2.575999975,-11.55280996,80,0.06993893329
2.579999924,-11.53758004,80,0.07018462695
2.584000111,-11.52489525,80,0.07038992053
2.588000059,-11.51606907,80,0.07053311964
2.592000008,-11.51212464,80,0.07059720969
2.595999956,-11.51377736,80,0.07057034887
2.599999905,-11.52144254,80,0.07044590385
2.604000092,-11.53525645,80,0.07022218767
2.60800004,-11.5551074,80,0.06990194499
2.611999989,-11.58068069,80,0.06949153909
2.615999937,-11.61151231,80,0.06899994896
2.619999886,-11.64704595,80,0.06843769994
2.624000072,-11.68669389,80,0.0678157566
2.628000021,-11.72990041,80,0.06714442502
2.631999969,-11.77619894,80,0.06643242501
2.635999918,-11.82526225,80,0.06568614507
2.640000105,-11.8769419,80,0.06490913334
2.644000053,-11.93129691,80,0.06410181245
2.648000002,-11.98860621,80,0.06326148448
2.65199995,-12.04935875,80,0.0623826939
2.655999899,-12.1142479,80,0.06145754529
2.660000086,-12.18413209,80,0.06047651976
2.664000034,-12.26000614,80,0.05942913187
2.667999983,-12.3429578,80,0.05830478794
2.671999931,-12.43412746,80,0.05709357711
2.676000118,-12.53466844,80,0.0557870191
2.680000067,-12.64571929,80,0.0543786061
2.684000015,-12.76836851,80,0.05286438075
2.687999964,-12.90364492,80,0.05124311334
2.691999912,-13.0524966,80,0.04951654566
2.696000099,-13.21579783,80,0.04768921971
2.700000048,-13.39434883,80,0.04576833531
2.703999996,-13.58888795,80,0.04376341513
2.707999945,-13.80011492,80,0.04168583531
2.711999893,-14.02871423,80,0.03954836895
2.71600008,-14.27538677,80,0.03736468483
2.720000029,-14.54088532,80,0.03514887815
2.723999977,-14.82605576,80,0.0329150428
2.727999926,-15.13187142,80,0.03067699797
2.732000113,-15.45947521,80,0.02844804847
2.736000061,-15.8102202,80,0.02624085492
2.74000001,-16.18568185,80,0.02406754625
2.743999958,-16.58769246,80,0.02193970348
2.747999907,-17.0183233,80,0.01986861847
2.752000093,-17.47985653,80,0.01786546592
2.756000042,-17.97471048,80,0.01594149151
2.75999999,-18.50526192,80,0.01410827149
2.763999939,-19.07358018,80,0.01237775786
2.767999887,-19.68092911,80,0.01076234945
2.772000074,-20.32691684,80,0.009274880348
2.776000023,-21.0081209,80,0.00792844303
2.779999971,-21.7158562,80,0.006736190795
2.78399992,-22.43285084,80,0.005711036237
2.788000107,-23.1288436,80,0.004865367389
2.792000055,-23.75648175,80,0.004210675999
2.796000004,-24.25128203,80,0.003757264737
2.799999952,-24.54197786,80,0.003514003693
2.803999901,-24.57401451,80,0.003488177284
2.808000088,-24.33514767,80,0.003685405101
2.812000036,-23.86193484,80,0.004109665895
2.815999985,-23.22076617,80,0.004763469433
2.819999933,-22.48100477,80,0.005648062876
2.823999882,-21.69815139,80,0.006763708175
2.828000069,-20.90977254,80,0.008110035319
2.832000017,-20.13840801,80,0.00968632862
2.835999966,-19.39611809,80,0.01149180349
2.839999914,-18.68835946,80,0.01352583404
2.844000101,-18.01670303,80,0.01578809376
2.84800005,-17.38058522,80,0.01827853894
2.851999998,-16.77834936,80,0.02099737786
2.855999947,-16.20787052,80,0.02394489563
2.859999895,-15.66690814,80,0.02712121779
2.864000082,-15.15329545,80,0.03052603901
2.868000031,-14.66503338,80,0.03415833249
2.871999979,-14.20032248,80,0.03801611669
2.875999928,-13.75757141,80,0.04209619657
2.880000114,-13.33537271,80,0.04639409726
2.884000063,-12.93248244,80,0.05090398193
2.888000011,-12.54778598,80,0.05561877284
2.89199996,-12.18026989,80,0.06053032574
2.895999908,-11.82899697,80,0.06562968246
