#Parameters = {FSS=70; FSSX=1; FSSY=-1; MT=0.018; T=0.13; epsilon=8.939737856; g=-10; gl=15; gw=26; hg=18; hgl=-3; hgnd1up=0; hgw=0.5; hgx1=15; hgy1=10; hsll=1.5; hslw=14.5; n=2; phanup=50; phanx=0; phany=0; pl=26; plusex=0; plusey=0; plusl=6.5; plusw=2.5; plusx=4; plusy=4; pw=23; r=17.35655495771; sl=24; sll=-10; sll1=-16; slot1side=0; slot1up=-1; slot2side=0; slot2up=-8; slw=0.5; slw1=0.5; stripl=19; stripw=1.5; stubl=2; stubw=0.5; stubx=-2.5; stw=0.5; stw1=0; sty=1; sw=30; tand=0.52047199; x=17}
#"Frequency / GHz"	"S1,1 (3) [Magnitude]"
#----------------------------------------
1.0000000000000	-2.9731361250402
1.0039999485016	-2.9828009341489
1.0080000162125	-2.9939024598259
1.0119999647141	-3.0068124896843
1.0160000324249	-3.0219058234069
1.0199999809265	-3.0395616919082
1.0240000486374	-3.0601627847335
1.0279999971390	-3.0840978493058
1.0319999456406	-3.1117668959753
1.0360000133514	-3.1435744165280
1.0399999618530	-3.1799401368665
1.0440000295639	-3.2212986765940
1.0479999780655	-3.2680995656802
1.0520000457764	-3.3208160342893
1.0559999942780	-3.3799425495177
1.0599999427795	-3.4460046454603
1.0640000104904	-3.5195567746528
1.0679999589920	-3.6011946809377
1.0720000267029	-3.6915535813445
1.0759999752045	-3.7913156279808
1.0800000429153	-3.9012201721189
1.0839999914169	-4.0220609606092
1.0880000591278	-4.1547052817918
1.0920000076294	-4.3000931739637
1.0959999561310	-4.4592502453548
1.1000000238419	-4.6332964165795
1.1039999723434	-4.8234584738937
1.1080000400543	-5.0310801596029
1.1119999885559	-5.2576349495676
1.1160000562668	-5.5047467361209
1.1200000047684	-5.7741991863598
1.1239999532700	-6.0679550075286
1.1280000209808	-6.3881749190770
1.1319999694824	-6.7372364000888
1.1360000371933	-7.1177378327090
1.1399999856949	-7.5325131956028
1.1440000534058	-7.9846105388855
1.1480000019073	-8.4772521020466
1.1519999504089	-9.0137162913911
1.1560000181198	-9.5971252780862
1.1599999666214	-10.230001839922
1.1640000343323	-10.913483309557
1.1679999828339	-11.645874079909
1.1720000505447	-12.420147769227
1.1759999990463	-13.219795304005
1.1799999475479	-14.012696660233
1.1840000152588	-14.744055210435
1.1879999637604	-15.333460865445
1.1920000314713	-15.686828163195
1.1959999799728	-15.730833632353
1.2000000476837	-15.452932446535
1.2039999961853	-14.909251693737
1.2079999446869	-14.191517074506
1.2120000123978	-13.387144852350
1.2159999608994	-12.559714842318
1.2200000286102	-11.748237220180
1.2239999771118	-10.973673542651
1.2280000448227	-10.245636085171
1.2319999933243	-9.5672375724304
1.2359999418259	-8.9380325742991
1.2400000095367	-8.3558224397396
1.2439999580383	-7.8175858204490
1.2480000257492	-7.3200457703372
1.2519999742508	-6.8599280865382
1.2560000419617	-6.4341109644705
1.2599999904633	-6.0396922029126
1.2640000581741	-5.6740003113282
1.2680000066757	-5.3345968490568
1.2719999551773	-5.0192752620302
1.2760000228882	-4.7260309191303
1.2799999713898	-4.4530480812621
1.2840000391006	-4.1986884426333
1.2879999876022	-3.9614626495623
1.2920000553131	-3.7400248225682
1.2960000038147	-3.5331512802096
1.2999999523163	-3.3397338278081
1.3040000200272	-3.1587625798966
1.3079999685287	-2.9893180975113
1.3120000362396	-2.8305676014258
1.3159999847412	-2.6817455794176
1.3200000524521	-2.5421593954675
1.3240000009537	-2.4111711647346
1.3279999494553	-2.2882017604187
1.3320000171661	-2.1727210762834
1.3359999656677	-2.0642390837597
1.3400000333786	-1.9623131345627
1.3439999818802	-1.8665331581821
1.3480000495911	-1.7765247481995
1.3519999980927	-1.6919426665884
1.3559999465942	-1.6124708284930
1.3600000143051	-1.5378182388636
1.3639999628067	-1.4677169982890
1.3680000305176	-1.4019214861908
1.3719999790192	-1.3402035202494
1.3760000467300	-1.2823542260145
1.3799999952316	-1.2281813892339
1.3839999437332	-1.1775059597077
1.3880000114441	-1.1301637569814
1.3919999599457	-1.0860027906476
1.3960000276566	-1.0448812491004
1.3999999761581	-1.0066696074259
1.4040000438690	-0.97124778739573
1.4079999923706	-0.93850225051461
1.4119999408722	-0.90832988733211
1.4160000085831	-0.88063226291970
1.4199999570847	-0.85532093890358
1.4240000247955	-0.83230887119417
1.4279999732971	-0.81151877208093
1.4320000410080	-0.79287484031790
1.4359999895096	-0.77630680847628
1.4400000572205	-0.76174928418741
1.4440000057220	-0.74913767416605
1.4479999542236	-0.73841328829785
1.4520000219345	-0.72951792776473
1.4559999704361	-0.72239589270176
1.4600000381470	-0.71699303279804
1.4639999866486	-0.71325703281386
1.4680000543594	-0.71113720249216
1.4720000028610	-0.71058293278454
1.4759999513626	-0.71154399657406
1.4800000190735	-0.71397060894026
1.4839999675751	-0.71781408968609
1.4880000352859	-0.72302298527098
1.4919999837875	-0.72954894917668
1.4960000514984	-0.73733949912929
1.5000000000000	-0.74634531116065
1.5039999485016	-0.75651193012512
1.5080000162125	-0.76778851202908
1.5119999647141	-0.78011827440843
1.5160000324249	-0.79344808254100
1.5199999809265	-0.80772195040207
1.5240000486374	-0.82288212801191
1.5279999971390	-0.83887112041015
1.5319999456406	-0.85562977018242
1.5360000133514	-0.87310010682906
1.5399999618530	-0.89122218063017
1.5440000295639	-0.90993622114100
1.5479999780655	-0.92918049849342
1.5520000457764	-0.94889789794408
1.5559999942780	-0.96902702630111
1.5599999427795	-0.98951041657726
1.5640000104904	-1.0102911234758
1.5679999589920	-1.0313129939710
1.5720000267029	-1.0525212324874
1.5759999752045	-1.0738640514351
1.5800000429153	-1.0952919260794
1.5839999914169	-1.1167582815659
1.5880000591278	-1.1382181771469
1.5920000076294	-1.1596318415121
1.5959999561310	-1.1809611916659
1.6000000238419	-1.2021741585175
1.6039999723434	-1.2232406372675
1.6080000400543	-1.2441353877342
1.6119999885559	-1.2648380327538
1.6160000562668	-1.2853320273478
1.6200000047684	-1.3056054467694
1.6239999532700	-1.3256508137963
1.6280000209808	-1.3454653350507
1.6319999694824	-1.3650497420660
1.6360000371933	-1.3844100367302
1.6399999856949	-1.4035560134717
1.6440000534058	-1.4225012322832
1.6480000019073	-1.4412627508393
1.6519999504089	-1.4598628117319
1.6560000181198	-1.4783245576100
1.6599999666214	-1.4966755287530
1.6640000343323	-1.5149463540903
1.6679999828339	-1.5331693181477
1.6720000505447	-1.5513790158942
1.6759999990463	-1.5696130316254
1.6799999475479	-1.5879074648926
1.6840000152588	-1.6063042150970
1.6879999637604	-1.6248426768864
1.6920000314713	-1.6435634343066
1.6959999799728	-1.6625096601920
1.7000000476837	-1.6817210410031
1.7039999961853	-1.7012403065746
1.7079999446869	-1.7211089074914
1.7120000123978	-1.7413673517281
1.7159999608994	-1.7620539832000
1.7200000286102	-1.7832087882455
1.7239999771118	-1.8048698533589
1.7280000448227	-1.8270714050012
1.7319999933243	-1.8498490649543
1.7359999418259	-1.8732359721981
1.7400000095367	-1.8972621898168
1.7439999580383	-1.9219567427044
1.7480000257492	-1.9473464675301
1.7519999742508	-1.9734551036501
1.7560000419617	-2.0003070950148
1.7599999904633	-2.0279184438583
1.7640000581741	-2.0563084614610
1.7680000066757	-2.0854926973681
1.7719999551773	-2.1154814469759
1.7760000228882	-2.1462848432809
1.7799999713898	-2.1779087262761
1.7840000391006	-2.2103589056348
1.7879999876022	-2.2436352830643
1.7920000553131	-2.2777371838512
1.7960000038147	-2.3126619009261
1.7999999523163	-2.3484004494858
1.8040000200272	-2.3849463024596
1.8079999685287	-2.4222862201840
1.8120000362396	-2.4604071172737
1.8159999847412	-2.4992950621679
1.8200000524521	-2.5389297933364
1.8240000009537	-2.5792907911611
1.8279999494553	-2.6203579478257
1.8320000171661	-2.6621077542963
1.8359999656677	-2.7045146722031
1.8400000333786	-2.7475516625887
1.8439999818802	-2.7911940860118
1.8480000495911	-2.8354105667832
1.8519999980927	-2.8801736793477
1.8559999465942	-2.9254547014536
1.8600000143051	-2.9712242527005
1.8639999628067	-3.0174511310902
1.8680000305176	-3.0641081290756
1.8719999790192	-3.1111670325046
1.8760000467300	-3.1585990361418
1.8799999952316	-3.2063761935233
1.8839999437332	-3.2544758021592
1.8880000114441	-3.3028711950931
1.8919999599457	-3.3515406478574
1.8960000276566	-3.4004628845479
1.8999999761581	-3.4496192702035
1.9040000438690	-3.4989938005840
1.9079999923706	-3.5485697235378
1.9119999408722	-3.5983347291179
1.9160000085831	-3.6482791605116
1.9199999570847	-3.6983951434488
1.9240000247955	-3.7486771788830
1.9279999732971	-3.7991220294164
1.9320000410080	-3.8497280978032
1.9359999895096	-3.9004986024644
1.9400000572205	-3.9514346306011
1.9440000057220	-4.0025436376896
1.9479999542236	-4.0538311645703
1.9520000219345	-4.1053076595311
1.9559999704361	-4.1569832553229
1.9600000381470	-4.2088698840739
1.9639999866486	-4.2609812695986
1.9680000543594	-4.3133315848090
1.9720000028610	-4.3659363271003
1.9759999513626	-4.4188097295468
1.9800000190735	-4.4719677326645
1.9839999675751	-4.5254249929106
1.9880000352859	-4.5791973953174
1.9919999837875	-4.6332995621214
1.9960000514984	-4.6877442119714
2.0000000000000	-4.7425446543456
2.0039999485016	-4.7977103498689
2.0079998970032	-4.8532528733275
2.0120000839233	-4.9091776347644
2.0160000324249	-4.9654901211963
2.0199999809265	-5.0221942440544
2.0239999294281	-5.0792884498229
2.0280001163483	-5.1367722899088
2.0320000648499	-5.1946376111552
2.0360000133514	-5.2528781858633
2.0399999618530	-5.3114797571937
2.0439999103546	-5.3704277631018
2.0480000972748	-5.4297033574741
2.0520000457764	-5.4892836640805
2.0559999942780	-5.5491446218142
2.0599999427795	-5.6092524422114
2.0639998912811	-5.6695776245924
2.0680000782013	-5.7300836906050
2.0720000267029	-5.7907268052068
2.0759999752045	-5.8514666828777
2.0799999237061	-5.9122564707888
2.0840001106262	-5.9730467198702
2.0880000591278	-6.0337825465576
2.0920000076294	-6.0944142746886
2.0959999561310	-6.1548805614472
2.0999999046326	-6.2151255738510
2.1040000915527	-6.2750887367009
2.1080000400543	-6.3347088912289
2.1119999885559	-6.3939249169728
2.1159999370575	-6.4526738365393
2.1199998855591	-6.5108944340502
2.1240000724792	-6.5685253798006
2.1280000209808	-6.6255089910402
2.1319999694824	-6.6817839984597
2.1359999179840	-6.7372966248362
2.1400001049042	-6.7919922565739
2.1440000534058	-6.8458195489347
2.1480000019073	-6.8987343480600
2.1519999504089	-6.9506898328770
2.1559998989105	-7.0016493317273
2.1600000858307	-7.0515763229025
2.1640000343323	-7.1004430319203
2.1679999828339	-7.1482242763564
2.1719999313354	-7.1948981771543
2.1760001182556	-7.2404539174388
2.1800000667572	-7.2848821862389
2.1840000152588	-7.3281787608157
2.1879999637604	-7.3703462680865
2.1919999122620	-7.4113925130716
2.1960000991821	-7.4513330199325
2.2000000476837	-7.4901841920618
2.2039999961853	-7.5279697839303
2.2079999446869	-7.5647197291297
2.2119998931885	-7.6004642737778
2.2160000801086	-7.6352423907269
2.2200000286102	-7.6690927657036
2.2239999771118	-7.7020622389967
2.2279999256134	-7.7341963846297
2.2320001125336	-7.7655459764550
2.2360000610352	-7.7961621205080
2.2400000095367	-7.8261015562057
2.2439999580383	-7.8554175086032
2.2479999065399	-7.8841671287284
2.2520000934601	-7.9124095658503
2.2560000419617	-7.9402017554135
2.2599999904633	-7.9676021455201
2.2639999389648	-7.9946679601485
2.2679998874664	-8.0214565891156
2.2720000743866	-8.0480252540049
2.2760000228882	-8.0744284441688
2.2799999713898	-8.1007214940780
2.2839999198914	-8.1269546775270
2.2880001068115	-8.1531820785052
2.2920000553131	-8.1794503183054
2.2960000038147	-8.2058070710792
2.2999999523163	-8.2322981503522
2.3039999008179	-8.2589670709878
2.3080000877380	-8.2858535947574
2.3120000362396	-8.3129976293661
2.3159999847412	-8.3404347744020
2.3199999332428	-8.3682014227874
2.3239998817444	-8.3963303340442
2.3280000686646	-8.4248519573479
2.3320000171661	-8.4537943545304
2.3359999656677	-8.4831855009946
2.3399999141693	-8.5130513662566
2.3440001010895	-8.5434156532115
2.3480000495911	-8.5743023060778
2.3519999980927	-8.6057304401726
2.3559999465942	-8.6377233341986
2.3599998950958	-8.6702982853394
2.3640000820160	-8.7034759631827
2.3680000305176	-8.7372736764649
2.3719999790192	-8.7717107431729
2.3759999275208	-8.8068063063401
2.3800001144409	-8.8425755817684
2.3840000629425	-8.8790393122359
2.3880000114441	-8.9162152392534
2.3919999599457	-8.9541234887794
2.3959999084473	-8.9927861288168
2.4000000953674	-9.0322219152343
2.4040000438690	-9.0724558413854
2.4079999923706	-9.1135108215260
2.4119999408722	-9.1554128300411
2.4159998893738	-9.1981903668269
2.4200000762939	-9.2418723797282
2.4240000247955	-9.2864896738581
2.4279999732971	-9.3320778548476
2.4319999217987	-9.3786698814810
2.4360001087189	-9.4263067160505
2.4400000572205	-9.4750289962854
2.4440000057220	-9.5248781200251
2.4479999542236	-9.5759015167586
2.4519999027252	-9.6281552218376
2.4560000896454	-9.6816800859182
2.4600000381470	-9.7365398642548
2.4639999866486	-9.7927843277783
2.4679999351501	-9.8504860963905
2.4719998836517	-9.9097012389161
2.4760000705719	-9.9705009442696
2.4800000190735	-10.032950802378
2.4839999675751	-10.097132076942
2.4879999160767	-10.163125233341
2.4920001029968	-10.231008460209
2.4960000514984	-10.300866080151
2.5000000000000	-10.372786645125
2.5039999485016	-10.446861035306
2.5079998970032	-10.523195003814
2.5120000839233	-10.601874211485
2.5160000324249	-10.683021953973
2.5199999809265	-10.766729493608
2.5239999294281	-10.853119675087
2.5280001163483	-10.942311676975
2.5320000648499	-11.034432578782
2.5360000133514	-11.129598387648
2.5399999618530	-11.227942196609
2.5439999103546	-11.329615972314
2.5480000972748	-11.434754894943
2.5520000457764	-11.543511479627
2.5559999942780	-11.656048288738
2.5599999427795	-11.772529132126
2.5639998912811	-11.893124452592
2.5680000782013	-12.018017545038
2.5720000267029	-12.147402396306
2.5759999752045	-12.281476005917
2.5799999237061	-12.420451100061
2.5840001106262	-12.564550977847
2.5880000591278	-12.714010953722
2.5920000076294	-12.869080756890
2.5959999561310	-13.030024279518
2.5999999046326	-13.197123072135
2.6040000915527	-13.370673348716
2.6080000400543	-13.550997352786
2.6119999885559	-13.738431425571
2.6159999370575	-13.933341584384
2.6199998855591	-14.136117420162
2.6240000724792	-14.347176577219
2.6280000209808	-14.566969423465
2.6319999694824	-14.795980634486
2.6359999179840	-15.034732680445
2.6400001049042	-15.283790497189
2.6440000534058	-15.543763654740
2.6480000019073	-15.815310683540
2.6519999504089	-16.099148871730
2.6559998989105	-16.396049274822
2.6600000858307	-16.706846297400
2.6640000343323	-17.032442491873
2.6679999828339	-17.373803084893
2.6719999313354	-17.731964174985
2.6760001182556	-18.108024631711
2.6800000667572	-18.503130599536
2.6840000152588	-18.918454024058
2.6879999637604	-19.355160239467
2.6919999122620	-19.814336701555
2.6960000991821	-20.296888653765
2.7000000476837	-20.803375203861
2.7039999961853	-21.333739615592
2.7079999446869	-21.886908685310
2.7119998931885	-22.460197347830
2.7160000801086	-23.048427160401
2.7200000286102	-23.642676795887
2.7239999771118	-24.228756941855
2.7279999256134	-24.785506579502
2.7320001125336	-25.283753454210
2.7360000610352	-25.687109162844
2.7400000095367	-25.956422960353
2.7439999580383	-26.058393433751
2.7479999065399	-25.975829422347
2.7520000934601	-25.713949545782
2.7560000419617	-25.298409826135
2.7599999904633	-24.766439716980
2.7639999389648	-24.156780240466
2.7679998874664	-23.502835229943
2.7720000743866	-22.830096131326
2.7760000228882	-22.156369536556
2.7799999713898	-21.493256135794
2.7839999198914	-20.847801614634
2.7880001068115	-20.223935057869
2.7920000553131	-19.623519448906
2.7960000038147	-19.047110977529
2.7999999523163	-18.494450042456
2.8039999008179	-17.964804914168
2.8080000877380	-17.457180318707
2.8120000362396	-16.970451930430
2.8159999847412	-16.503456096049
2.8199999332428	-16.055040965570
2.8239998817444	-15.624092258971
2.8280000686646	-15.209554972928
2.8320000171661	-14.810441490124
2.8359999656677	-14.425831545386
2.8399999141693	-14.054873132806
2.8440001010895	-13.696778152390
2.8480000495911	-13.350825201101
2.8519999980927	-13.016345009903
2.8559999465942	-12.692726072488
2.8599998950958	-12.379403130916
2.8640000820160	-12.075856690973
2.8680000305176	-11.781609608893
2.8719999790192	-11.496218414643
2.8759999275208	-11.219277961269
2.8800001144409	-10.950413746185
2.8840000629425	-10.689273252380
2.8880000114441	-10.435538542064
2.8919999599457	-10.188905868056
2.8959999084473	-9.9490987296751
2.9000000953674	-9.7158593239847
2.9040000438690	-9.4889426660152
2.9079999923706	-9.2681249829864
2.9119999408722	-9.0531937012913
2.9159998893738	-8.8439512868410
2.9200000762939	-8.6402088627661
2.9240000247955	-8.4417927565247
2.9279999732971	-8.2485361688042
2.9319999217987	-8.0602821027490
2.9360001087189	-7.8768825410602
2.9400000572205	-7.6981953370326
2.9440000057220	-7.5240862689318
2.9479999542236	-7.3544295698312
2.9519999027252	-7.1890988747964
2.9560000896454	-7.0279808487808
2.9600000381470	-6.8709623615847
2.9639999866486	-6.7179346752348
2.9679999351501	-6.5687933775289
2.9719998836517	-6.4234394227201
2.9760000705719	-6.2817772710326
2.9800000190735	-6.1437123377019
2.9839999675751	-6.0091543776841
2.9879999160767	-5.8780149704617
2.9920001029968	-5.7502099946035
2.9960000514984	-5.6256564844098
3.0000000000000	-5.5042738371180
3.0039999485016	-5.3859824443239
3.0079998970032	-5.2707066453284
3.0120000839233	-5.1583730012111
3.0160000324249	-5.0489065213203
3.0199999809265	-4.9422381464132
3.0239999294281	-4.8382969543703
3.0280001163483	-4.7370159973816
3.0320000648499	-4.6383270126244
3.0360000133514	-4.5421680041881
3.0399999618530	-4.4484729495335
3.0439999103546	-4.3571809809735
3.0480000972748	-4.2682306923860
3.0520000457764	-4.1815624744172
3.0559999942780	-4.0971193529619
3.0599999427795	-4.0148434010246
3.0639998912811	-3.9346789004966
3.0680000782013	-3.8565713662474
3.0720000267029	-3.7804691325339
3.0759999752045	-3.7063178856114
3.0799999237061	-3.6340686797518
3.0840001106262	-3.5636709115085
3.0880000591278	-3.4950772122815
3.0920000076294	-3.4282376390576
3.0959999561310	-3.3631088444088
3.0999999046326	-3.2996449589838
3.1040000915527	-3.2378013798012
3.1080000400543	-3.1775366227897
3.1119999885559	-3.1188081535921
3.1159999370575	-3.0615745481091
3.1199998855591	-3.0057976316576
3.1240000724792	-2.9514378445618
3.1280000209808	-2.8984590658432
3.1319999694824	-2.8468223169881
3.1359999179840	-2.7964947452085
3.1400001049042	-2.7474384163602
3.1440000534058	-2.6996237547669
3.1480000019073	-2.6530152511275
3.1519999504089	-2.6075822591303
3.1559998989105	-2.5632936671078
3.1600000858307	-2.5201197876716
3.1640000343323	-2.4780305568475
3.1679999828339	-2.4369991139491
3.1719999313354	-2.3969971768371
3.1760001182556	-2.3579979803440
3.1800000667572	-2.3199762643390
3.1840000152588	-2.2829067795479
3.1879999637604	-2.2467638626599
3.1919999122620	-2.2115258228689
3.1960000991821	-2.1771676154803
3.2000000476837	-2.1436680225766
3.2039999961853	-2.1110054856488
3.2079999446869	-2.0791583892145
3.2119998931885	-2.0481064404284
3.2160000801086	-2.0178291064168
3.2200000286102	-1.9883077234555
3.2239999771118	-1.9595231588909
3.2279999256134	-1.9314582632960
3.2320001125336	-1.9040931324021
3.2360000610352	-1.8774112026542
3.2400000095367	-1.8513961542721
3.2439999580383	-1.8260301615755
3.2479999065399	-1.8012986590178
3.2520000934601	-1.7771847713157
3.2560000419617	-1.7536743559128
3.2599999904633	-1.7307512760789
3.2639999389648	-1.7084014782856
3.2679998874664	-1.6866101987866
3.2720000743866	-1.6653640718231
