#Parameters = {FSS=70; FSSX=1; FSSY=-1; MT=0.018; T=0.13; epsilon=9.268072367; g=-10; gl=15; gw=26; hg=18; hgl=-3; hgnd1up=0; hgw=0.5; hgx1=15; hgy1=10; hsll=1.5; hslw=14.5; n=2; phanup=50; phanx=0; phany=0; pl=26; plusex=0; plusey=0; plusl=6.5; plusw=2.5; plusx=4; plusy=4; pw=23; r=17.35655495771; sl=24; sll=-10; sll1=-16; slot1side=0; slot1up=-1; slot2side=0; slot2up=-8; slw=0.5; slw1=0.5; stripl=19; stripw=1.5; stubl=2; stubw=0.5; stubx=-2.5; stw=0.5; stw1=0; sty=1; sw=30; tand=0.513130327; x=17}
#"Frequency / GHz"	"S1,1 (37) [Magnitude]"
#-----------------------------------------
1.0000000000000	-2.9730081773436
1.0039999485016	-2.9826009584238
1.0080000162125	-2.9936322923378
1.0119999647141	-3.0064726823211
1.0160000324249	-3.0214981669311
1.0199999809265	-3.0390871482886
1.0240000486374	-3.0596234806016
1.0279999971390	-3.0834986817052
1.0319999456406	-3.1111084059085
1.0360000133514	-3.1428592612623
1.0399999618530	-3.1791727106924
1.0440000295639	-3.2204810080953
1.0479999780655	-3.2672365583939
1.0520000457764	-3.3199104733305
1.0559999942780	-3.3789993613453
1.0599999427795	-3.4450270580207
1.0640000104904	-3.5185511675833
1.0679999589920	-3.6001657303922
1.0720000267029	-3.6905067544916
1.0759999752045	-3.7902580355489
1.0800000429153	-3.9001563093645
1.0839999914169	-4.0210017031380
1.0880000591278	-4.1536577565829
1.0920000076294	-4.2990676972353
1.0959999561310	-4.4582590792350
1.1000000238419	-4.6323513944120
1.1039999723434	-4.8225731410434
1.1080000400543	-5.0302708281091
1.1119999885559	-5.2569219756768
1.1160000562668	-5.5041506366600
1.1200000047684	-5.7737443606808
1.1239999532700	-6.0676714667245
1.1280000209808	-6.3880970056281
1.1319999694824	-6.7374027778605
1.1360000371933	-7.1181960924858
1.1399999856949	-7.5333198366065
1.1440000534058	-7.9858314050045
1.1480000019073	-8.4789648931841
1.1519999504089	-9.0160174937406
1.1560000181198	-9.6001260073612
1.1599999666214	-10.233839181232
1.1640000343323	-10.918312876258
1.1679999828339	-11.651872553228
1.1720000505447	-12.427491435695
1.1759999990463	-13.228622840819
1.1799999475479	-14.023029633352
1.1840000152588	-14.755641686615
1.1879999637604	-15.345615574365
1.1920000314713	-15.698396172453
1.1959999799728	-15.740484927703
1.2000000476837	-15.459728602457
1.2039999961853	-14.912969694480
1.2079999446869	-14.192529609135
1.2120000123978	-13.386055622902
1.2159999608994	-12.557118560962
1.2200000286102	-11.744609571444
1.2239999771118	-10.969372112248
1.2280000448227	-10.240916515007
1.2319999933243	-9.5622639797182
1.2359999418259	-8.9329299747159
1.2400000095367	-8.3506735200988
1.2439999580383	-7.8124497804135
1.2480000257492	-7.3149631969056
1.2519999742508	-6.8549276877447
1.2560000419617	-6.4292116360815
1.2599999904633	-6.0349057874776
1.2640000581741	-5.6693316354539
1.2680000066757	-5.3300557603685
1.2719999551773	-5.0148596799693
1.2760000228882	-4.7217416454328
1.2799999713898	-4.4488866034297
1.2840000391006	-4.1946511371148
1.2879999876022	-3.9575477847852
1.2920000553131	-3.7362296057208
1.2960000038147	-3.5294721647005
1.2999999523163	-3.3361670759319
1.3040000200272	-3.1553034821145
1.3079999685287	-2.9859655299065
1.3120000362396	-2.8273158219709
1.3159999847412	-2.6785927715312
1.3200000524521	-2.5391003005593
1.3240000009537	-2.4082034261811
1.3279999494553	-2.2853216286122
1.3320000171661	-2.1699249603461
1.3359999656677	-2.0615251940142
1.3400000333786	-1.9596776907501
1.3439999818802	-1.8639729937158
1.3480000495911	-1.7740378029084
1.3519999980927	-1.6895257788419
1.3559999465942	-1.6101225820185
1.3600000143051	-1.5355363419037
1.3639999628067	-1.4654994938067
1.3680000305176	-1.3997661925200
1.3719999790192	-1.3381086155180
1.3760000467300	-1.2803186933813
1.3799999952316	-1.2262032994820
1.3839999437332	-1.1755842967836
1.3880000114441	-1.1282970315644
1.3919999599457	-1.0841896808031
1.3960000276566	-1.0431207219638
1.3999999761581	-1.0049624604675
1.4040000438690	-0.96959152788341
1.4079999923706	-0.93689682632506
1.4119999408722	-0.90677479824383
1.4160000085831	-0.87912830751229
1.4199999570847	-0.85386612432065
1.4240000247955	-0.83090478685194
1.4279999732971	-0.81016371584217
1.4320000410080	-0.79156939481677
1.4359999895096	-0.77505228576472
1.4400000572205	-0.76054494881648
1.4440000057220	-0.74798425959332
1.4479999542236	-0.73731147334093
1.4520000219345	-0.72846720805622
1.4559999704361	-0.72139711098634
1.4600000381470	-0.71604730970940
1.4639999866486	-0.71236556465405
1.4680000543594	-0.71030011166106
1.4720000028610	-0.70980174793634
1.4759999513626	-0.71081883213353
1.4800000190735	-0.71330307831628
1.4839999675751	-0.71720415172798
1.4880000352859	-0.72247331307367
1.4919999837875	-0.72905932376118
1.4960000514984	-0.73691167653567
1.5000000000000	-0.74597946529129
1.5039999485016	-0.75621052872071
1.5080000162125	-0.76755058493276
1.5119999647141	-0.77994682768383
1.5160000324249	-0.79334392198262
1.5199999809265	-0.80768481433975
1.5240000486374	-0.82291370801152
1.5279999971390	-0.83897179676683
1.5319999456406	-0.85580112125996
1.5360000133514	-0.87334294969342
1.5399999618530	-0.89153565351867
1.5440000295639	-0.91032090981739
1.5479999780655	-0.92963901501072
1.5520000457764	-0.94942850266419
1.5559999942780	-0.96963078974319
1.5599999427795	-0.99018761218612
1.5640000104904	-1.0110413381082
1.5679999589920	-1.0321355471259
1.5720000267029	-1.0534172662334
1.5759999752045	-1.0748319425034
1.5800000429153	-1.0963320426137
1.5839999914169	-1.1178695614344
1.5880000591278	-1.1394009889436
1.5920000076294	-1.1608838256227
1.5959999561310	-1.1822824985453
1.6000000238419	-1.2035624047873
1.6039999723434	-1.2246963756385
1.6080000400543	-1.2456564788050
1.6119999885559	-1.2664241089853
1.6160000562668	-1.2869811559966
1.6200000047684	-1.3073168856731
1.6239999532700	-1.3274236183348
1.6280000209808	-1.3472979251686
1.6319999694824	-1.3669403812981
1.6360000371933	-1.3863579116873
1.6399999856949	-1.4055601162797
1.6440000534058	-1.4245601620692
1.6480000019073	-1.4433760123405
1.6519999504089	-1.4620282499517
1.6560000181198	-1.4805416862896
1.6599999666214	-1.4989437541455
1.6640000343323	-1.5172645226042
1.6679999828339	-1.5355365603618
1.6720000505447	-1.5537952869473
1.6759999990463	-1.5720771643095
1.6799999475479	-1.5904194748754
1.6840000152588	-1.6088625471323
1.6879999637604	-1.6274478657307
1.6920000314713	-1.6462157778951
1.6959999799728	-1.6652074034005
1.7000000476837	-1.6844659206681
1.7039999961853	-1.7040319090408
1.7079999446869	-1.7239462325497
1.7120000123978	-1.7442510778095
1.7159999608994	-1.7649846604839
1.7200000286102	-1.7861874079467
1.7239999771118	-1.8078947773337
1.7280000448227	-1.8301446440960
1.7319999933243	-1.8529717938720
1.7359999418259	-1.8764071756722
1.7400000095367	-1.9004823749858
1.7439999580383	-1.9252266371939
1.7480000257492	-1.9506666776782
1.7519999742508	-1.9768264594650
1.7560000419617	-2.0037282971143
1.7599999904633	-2.0313913341909
1.7640000581741	-2.0598336694179
1.7680000066757	-2.0890692533860
1.7719999551773	-2.1191106166607
1.7760000228882	-2.1499659151155
1.7799999713898	-2.1816430785154
1.7840000391006	-2.2141450020510
1.7879999876022	-2.2474734798552
1.7920000553131	-2.2816272512848
1.7960000038147	-2.3166015266239
1.7999999523163	-2.3523915334168
1.8040000200272	-2.3889855877199
1.8079999685287	-2.4263746923327
1.8120000362396	-2.4645430341181
1.8159999847412	-2.5034760585214
1.8200000524521	-2.5431556407626
1.8240000009537	-2.5835593493358
1.8279999494553	-2.6246671237900
1.8320000171661	-2.6664555214441
1.8359999656677	-2.7088973225082
1.8400000333786	-2.7519673292010
1.8439999818802	-2.7956388246828
1.8480000495911	-2.8398823859031
1.8519999980927	-2.8846691783635
1.8559999465942	-2.9299694766759
1.8600000143051	-2.9757547305428
1.8639999628067	-3.0219947120298
1.8680000305176	-3.0686590529170
1.8719999790192	-3.1157198456209
1.8760000467300	-3.1631496753820
1.8799999952316	-3.2109204040913
1.8839999437332	-3.2590073451052
1.8880000114441	-3.3073852826054
1.8919999599457	-3.3560315123753
1.8960000276566	-3.4049248252889
1.8999999761581	-3.4540461830383
1.9040000438690	-3.5033790863924
1.9079999923706	-3.5529073189977
1.9119999408722	-3.6026211329183
1.9160000085831	-3.6525060734098
1.9199999570847	-3.7025562979080
1.9240000247955	-3.7527649516715
1.9279999732971	-3.8031314484814
1.9320000410080	-3.8536529716173
1.9359999895096	-3.9043290531494
1.9400000572205	-3.9551664463370
1.9440000057220	-4.0061684010659
1.9479999542236	-4.0573438846454
1.9520000219345	-4.1087000136344
1.9559999704361	-4.1602494932735
1.9600000381470	-4.2120037829900
1.9639999866486	-4.2639752242171
1.9680000543594	-4.3161787951053
1.9720000028610	-4.3686279572570
1.9759999513626	-4.4213413229455
1.9800000190735	-4.4743313358679
1.9839999675751	-4.5276140084115
1.9880000352859	-4.5812056750778
1.9919999837875	-4.6351195310863
1.9960000514984	-4.6893699777417
2.0000000000000	-4.7439688897749
2.0039999485016	-4.7989264794960
2.0079998970032	-4.8542538150480
2.0120000839233	-4.9099570561618
2.0160000324249	-4.9660411623866
2.0199999809265	-5.0225092303533
2.0239999294281	-5.0793626987621
2.0280001163483	-5.1365977204039
2.0320000648499	-5.1942085111530
2.0360000133514	-5.2521870408126
2.0399999618530	-5.3105211533740
2.0439999103546	-5.3691951468680
2.0480000972748	-5.4281923176607
2.0520000457764	-5.4874866554984
2.0559999942780	-5.5470555544524
2.0599999427795	-5.6068669008561
2.0639998912811	-5.6668899674886
2.0680000782013	-5.7270871782649
2.0720000267029	-5.7874191598725
2.0759999752045	-5.8478424667234
2.0799999237061	-5.9083105010040
2.0840001106262	-5.9687749151858
2.0880000591278	-6.0291837048305
2.0920000076294	-6.0894822563419
2.0959999561310	-6.1496169162392
2.0999999046326	-6.2095258363475
2.1040000915527	-6.2691533477875
2.1080000400543	-6.3284374360241
2.1119999885559	-6.3873145436763
2.1159999370575	-6.4457280359239
2.1199998855591	-6.5036143290352
2.1240000724792	-6.5609132463612
2.1280000209808	-6.6175662751675
2.1319999694824	-6.6735168306256
2.1359999179840	-6.7287080450069
2.1400001049042	-6.7830880990199
2.1440000534058	-6.8366089424711
2.1480000019073	-6.8892216636473
2.1519999504089	-6.9408847722739
2.1559998989105	-6.9915604583094
2.1600000858307	-7.0412147633949
2.1640000343323	-7.0898178850251
2.1679999828339	-7.1373472284140
2.1719999313354	-7.1837834523685
2.1760001182556	-7.2291136784998
2.1800000667572	-7.2733285567693
2.1840000152588	-7.3164276922429
2.1879999637604	-7.3584131330354
2.1919999122620	-7.3992936141625
2.1960000991821	-7.4390831210107
2.2000000476837	-7.4777992530689
2.2039999961853	-7.5154690007823
2.2079999446869	-7.5521185942983
2.2119998931885	-7.5877818179420
2.2160000801086	-7.6224944088337
2.2200000286102	-7.6563004022330
2.2239999771118	-7.6892421752784
2.2279999256134	-7.7213661117256
2.2320001125336	-7.7527242592315
2.2360000610352	-7.7833677154699
2.2400000095367	-7.8133506012448
2.2439999580383	-7.8427289029855
2.2479999065399	-7.8715590520417
2.2520000934601	-7.8998986570941
2.2560000419617	-7.9278055945979
2.2599999904633	-7.9553389240573
2.2639999389648	-7.9825527512622
2.2679998874664	-8.0095069599492
2.2720000743866	-8.0362576823799
2.2760000228882	-8.0628588129966
2.2799999713898	-8.0893640841073
2.2839999198914	-8.1158256096737
2.2880001068115	-8.1422951181036
2.2920000553131	-8.1688202736788
2.2960000038147	-8.1954488663633
2.2999999523163	-8.2222222379945
2.3039999008179	-8.2491895851975
2.3080000877380	-8.2763855751672
2.3120000362396	-8.3038525987869
2.3159999847412	-8.3316262001746
2.3199999332428	-8.3597388180193
2.3239998817444	-8.3882253678828
2.3280000686646	-8.4171144083469
2.3320000171661	-8.4464357166591
2.3359999656677	-8.4762162686738
2.3399999141693	-8.5064800107015
2.3440001010895	-8.5372532212341
2.3480000495911	-8.5685559786858
2.3519999980927	-8.6004088096183
2.3559999465942	-8.6328351223603
2.3599998950958	-8.6658496647073
2.3640000820160	-8.6994759196733
2.3680000305176	-8.7337291325563
2.3719999790192	-8.7686271981738
2.3759999275208	-8.8041885771496
2.3800001144409	-8.8404296783505
2.3840000629425	-8.8773712271767
2.3880000114441	-8.9150297147642
2.3919999599457	-8.9534254052878
2.3959999084473	-8.9925778924887
2.4000000953674	-9.0325077430919
2.4040000438690	-9.0732384543614
2.4079999923706	-9.1147935995970
2.4119999408722	-9.1571978367482
2.4159998893738	-9.2004791408623
2.4200000762939	-9.2446665688964
2.4240000247955	-9.2897906473268
2.4279999732971	-9.3358860430113
2.4319999217987	-9.3829864494894
2.4360001087189	-9.4311316440099
2.4400000572205	-9.4803601424295
2.4440000057220	-9.5307212217973
2.4479999542236	-9.5822515006157
2.4519999027252	-9.6350051613343
2.4560000896454	-9.6890361448287
2.4600000381470	-9.7443963501185
2.4639999866486	-9.8011462565176
2.4679999351501	-9.8593443936051
2.4719998836517	-9.9190540205253
2.4760000705719	-9.9803491999506
2.4800000190735	-10.043299874553
2.4839999675751	-10.107971834807
2.4879999160767	-10.174450577540
2.4920001029968	-10.242820109476
2.4960000514984	-10.313157521141
2.5000000000000	-10.385560768946
2.5039999485016	-10.460114110155
2.5079998970032	-10.536924179658
2.5120000839233	-10.616075028444
2.5160000324249	-10.697689383800
2.5199999809265	-10.781870852788
2.5239999294281	-10.868732547288
2.5280001163483	-10.958384182669
2.5320000648499	-11.050962190710
2.5360000133514	-11.146590305230
2.5399999618530	-11.245393472216
2.5439999103546	-11.347525522400
2.5480000972748	-11.453118037091
2.5520000457764	-11.562336134527
2.5559999942780	-11.675325367125
2.5599999427795	-11.792257990565
2.5639998912811	-11.913306025409
2.5680000782013	-12.038653047875
2.5720000267029	-12.168487288117
2.5759999752045	-12.303012079893
2.5799999237061	-12.442437253953
2.5840001106262	-12.586986099249
2.5880000591278	-12.736896630746
2.5920000076294	-12.892414146666
2.5959999561310	-13.053807169640
2.5999999046326	-13.221354567838
2.6040000915527	-13.395353449286
2.6080000400543	-13.576123470819
2.6119999885559	-13.764004171943
2.6159999370575	-13.959358657210
2.6199998855591	-14.162575853500
2.6240000724792	-14.374072594296
2.6280000209808	-14.594299467546
2.6319999694824	-14.823738328430
2.6359999179840	-15.062909768607
2.6400001049042	-15.312374648848
2.6440000534058	-15.572743160239
2.6480000019073	-15.844668901612
2.6519999504089	-16.128862849067
2.6559998989105	-16.426088613778
2.6600000858307	-16.737178072734
2.6640000343323	-17.063016756166
2.6679999828339	-17.404561637595
2.6719999313354	-17.762832293815
2.6760001182556	-18.138901286543
2.6800000667572	-18.533890192435
2.6840000152588	-18.948932180781
2.6879999637604	-19.385146083747
2.6919999122620	-19.843549890994
2.6960000991821	-20.324970303182
2.7000000476837	-20.829850989380
2.7039999961853	-21.357978843300
2.7079999446869	-21.908108014211
2.7119998931885	-22.477296418214
2.7160000801086	-23.060067875654
2.7200000286102	-23.647162401141
2.7239999771118	-24.224048820712
2.7279999256134	-24.769371378204
2.7320001125336	-25.254038842286
2.7360000610352	-25.642335774893
2.7400000095367	-25.896481896145
2.7439999580383	-25.985109071528
2.7479999065399	-25.892905572584
2.7520000934601	-25.626151140235
2.7560000419617	-25.210392026279
2.7599999904633	-24.681839875002
2.7639999389648	-24.077906745380
2.7679998874664	-23.430846651374
2.7720000743866	-22.765305021448
2.7760000228882	-22.098571367860
2.7799999713898	-21.441973535392
2.7839999198914	-20.802453502188
2.7880001068115	-20.183910500806
2.7920000553131	-19.588238875340
2.7960000038147	-19.016040674218
2.7999999523163	-18.467115886776
2.8039999008179	-17.940785003969
2.8080000877380	-17.436104399781
2.8120000362396	-16.951997204157
2.8159999847412	-16.487341927853
2.8199999332428	-16.041019263718
2.8239998817444	-15.611946594906
2.8280000686646	-15.199094474778
2.8320000171661	-14.801498449581
2.8359999656677	-14.418255982301
2.8399999141693	-14.048533055624
2.8440001010895	-13.691557736149
2.8480000495911	-13.346617641537
2.8519999980927	-13.013056916012
2.8559999465942	-12.690272382699
2.8599998950958	-12.377707310814
2.8640000820160	-12.074850191246
2.8680000305176	-11.781228558875
2.8719999790192	-11.496406416521
2.8759999275208	-11.219984142570
2.8800001144409	-10.951587731779
2.8840000629425	-10.690872947912
2.8880000114441	-10.437522200143
2.8919999599457	-10.191238904381
2.8959999084473	-9.9517459139736
2.9000000953674	-9.7187896306508
2.9040000438690	-9.4921281385920
2.9079999923706	-9.2715388068086
2.9119999408722	-9.0568110645918
2.9159998893738	-8.8477489859086
2.9200000762939	-8.6441674114944
2.9240000247955	-8.4458905069014
2.9279999732971	-8.2527564087901
2.9319999217987	-8.0646076622183
2.9360001087189	-7.8812980901750
2.9400000572205	-7.7026866680384
2.9440000057220	-7.5286403234885
2.9479999542236	-7.3590340907064
2.9519999027252	-7.1937433373240
2.9560000896454	-7.0326554182945
2.9600000381470	-6.8756542201142
2.9639999866486	-6.7226367095701
2.9679999351501	-6.5734985990375
2.9719998836517	-6.4281403032226
2.9760000705719	-6.2864648686472
2.9800000190735	-6.1483814479492
2.9839999675751	-6.0137989198584
2.9879999160767	-5.8826303111235
2.9920001029968	-5.7547916545083
2.9960000514984	-5.6301997793363
3.0000000000000	-5.5087733110655
3.0039999485016	-5.3904377575170
3.0079998970032	-5.2751124421749
3.0120000839233	-5.1627271327695
3.0160000324249	-5.0532068144018
3.0199999809265	-4.9464824405691
3.0239999294281	-4.8424835364018
3.0280001163483	-4.7411421881288
3.0320000648499	-4.6423933545891
3.0360000133514	-4.5461714401967
3.0399999618530	-4.4524144356632
3.0439999103546	-4.3610585738146
3.0480000972748	-4.2720450233772
3.0520000457764	-4.1853134319045
3.0559999942780	-4.1008045585311
3.0599999427795	-4.0184641676021
3.0639998912811	-3.9382358839073
3.0680000782013	-3.8600642327106
3.0720000267029	-3.7838982613314
3.0759999752045	-3.7096839244936
3.0799999237061	-3.6373714052780
3.0840001106262	-3.5669116527657
3.0880000591278	-3.4982561904972
3.0920000076294	-3.4313567237351
3.0959999561310	-3.3661678312734
3.0999999046326	-3.3026456386000
3.1040000915527	-3.2407441299274
3.1080000400543	-3.1804219131318
3.1119999885559	-3.1216370979522
3.1159999370575	-3.0643495921580
3.1199998855591	-3.0085170370886
3.1240000724792	-2.9541059594679
3.1280000209808	-2.9010746747386
3.1319999694824	-2.8493875026401
3.1359999179840	-2.7990088725071
3.1400001049042	-2.7499051228860
3.1440000534058	-2.7020428166956
3.1480000019073	-2.6553879471755
3.1519999504089	-2.6099093622901
3.1559998989105	-2.5655763217480
3.1600000858307	-2.5223597537644
3.1640000343323	-2.4802293160038
3.1679999828339	-2.4391559604881
3.1719999313354	-2.3991138865562
3.1760001182556	-2.3600759582011
3.1800000667572	-2.3220153727420
3.1840000152588	-2.2849086375886
3.1879999637604	-2.2487294945667
3.1919999122620	-2.2134552657884
3.1960000991821	-2.1790625977396
3.2000000476837	-2.1455293176008
3.2039999961853	-2.1128341917788
3.2079999446869	-2.0809547157059
3.2119998931885	-2.0498702314809
3.2160000801086	-2.0195621312047
3.2200000286102	-1.9900106850114
3.2239999771118	-1.9611963661630
3.2279999256134	-1.9331021554570
3.2320001125336	-1.9057088387582
3.2360000610352	-1.8789985887197
3.2400000095367	-1.8529554037556
3.2439999580383	-1.8275622071582
3.2479999065399	-1.8028034669594
3.2520000934601	-1.7786629917819
3.2560000419617	-1.7551259501707
3.2599999904633	-1.7321765172502
3.2639999389648	-1.7098009087349
3.2679998874664	-1.6879844245570
3.2720000743866	-1.6667126673223
