#Parameters = {FSS=70; FSSX=1; FSSY=-1; MT=0.018; T=0.13; epsilon=9.299637376; g=-10; gl=15; gw=26; hg=18; hgl=-3; hgnd1up=0; hgw=0.5; hgx1=15; hgy1=10; hsll=1.5; hslw=14.5; n=2; phanup=50; phanx=0; phany=0; pl=26; plusex=0; plusey=0; plusl=6.5; plusw=2.5; plusx=4; plusy=4; pw=23; r=17.35655495771; sl=24; sll=-10; sll1=-16; slot1side=0; slot1up=-1; slot2side=0; slot2up=-8; slw=0.5; slw1=0.5; stripl=19; stripw=1.5; stubl=2; stubw=0.5; stubx=-2.5; stw=0.5; stw1=0; sty=1; sw=30; tand=0.512433839; x=17}
#"Frequency / GHz"	"S1,1 (40) [Magnitude]"
#-----------------------------------------
1.0000000000000	-2.9730154631468
1.0039999485016	-2.9826022808558
1.0080000162125	-2.9936274487335
1.0119999647141	-3.0064624890948
1.0160000324249	-3.0214819836818
1.0199999809265	-3.0390657272020
1.0240000486374	-3.0595979716745
1.0279999971390	-3.0834663508266
1.0319999456406	-3.1110723702488
1.0360000133514	-3.1428195904273
1.0399999618530	-3.1791284249607
1.0440000295639	-3.2204335794770
1.0479999780655	-3.2671859430415
1.0520000457764	-3.3198577744215
1.0559999942780	-3.3789438181000
1.0599999427795	-3.4449709013625
1.0640000104904	-3.5184936289621
1.0679999589920	-3.6001076904274
1.0720000267029	-3.6904481376271
1.0759999752045	-3.7902005728638
1.0800000429153	-3.9001018969859
1.0839999914169	-4.0209479404062
1.0880000591278	-4.1536093449648
1.0920000076294	-4.2990231645438
1.0959999561310	-4.4582196671609
1.1000000238419	-4.6323196802218
1.1039999723434	-4.8225499007229
1.1080000400543	-5.0302587227490
1.1119999885559	-5.2569220070408
1.1160000562668	-5.5041648115057
1.1200000047684	-5.7737763559178
1.1239999532700	-6.0677237215653
1.1280000209808	-6.3881737950338
1.1319999694824	-6.7375081114887
1.1360000371933	-7.1183348305907
1.1399999856949	-7.5334964162389
1.1440000534058	-7.9860532063214
1.1480000019073	-8.4792402361349
1.1519999504089	-9.0163567753620
1.1560000181198	-9.6005397635753
1.1599999666214	-10.234340790572
1.1640000343323	-10.918917069514
1.1679999828339	-11.652593975615
1.1720000505447	-12.428346998148
1.1759999990463	-13.229623305008
1.1799999475479	-14.024168502800
1.1840000152588	-14.756887366494
1.1879999637604	-15.346885920313
1.1920000314713	-15.699568641387
1.1959999799728	-15.741421970069
1.2000000476837	-15.460347865870
1.2039999961853	-14.913260824525
1.2079999446869	-14.192540575315
1.2120000123978	-13.385858539428
1.2159999608994	-12.556776399896
1.2200000286102	-11.744177187363
1.2239999771118	-10.968874059974
1.2280000448227	-10.240383613552
1.2319999933243	-9.5617141338190
1.2359999418259	-8.9323776488292
1.2400000095367	-8.3501219967312
1.2439999580383	-7.8119055718099
1.2480000257492	-7.3144299803317
1.2519999742508	-6.8544040188504
1.2560000419617	-6.4287035303610
1.2599999904633	-6.0344108985909
1.2640000581741	-5.6688534561960
1.2680000066757	-5.3295910542360
1.2719999551773	-5.0144110721904
1.2760000228882	-4.7213078811287
1.2799999713898	-4.4484664813962
1.2840000391006	-4.1942461329458
1.2879999876022	-3.9571556049277
1.2920000553131	-3.7358507374350
1.2960000038147	-3.5291057100235
1.2999999523163	-3.3358119097399
1.3040000200272	-3.1549608524681
1.3079999685287	-2.9856337240751
1.3120000362396	-2.8269944690752
1.3159999847412	-2.6782816846626
1.3200000524521	-2.5387994346034
1.3240000009537	-2.4079124752888
1.3279999494553	-2.2850397913170
1.3320000171661	-2.1696508103834
1.3359999656677	-2.0612601977715
1.3400000333786	-1.9594207497552
1.3439999818802	-1.8637239005147
1.3480000495911	-1.7737955471708
1.3519999980927	-1.6892914580265
1.3559999465942	-1.6098951225905
1.3600000143051	-1.5353152919099
1.3639999628067	-1.4652851609025
1.3680000305176	-1.3995569248267
1.3719999790192	-1.3379064882592
1.3760000467300	-1.2801220678389
1.3799999952316	-1.2260126458517
1.3839999437332	-1.1753991788268
1.3880000114441	-1.1281166815102
1.3919999599457	-1.0840144892936
1.3960000276566	-1.0429521415775
1.3999999761581	-1.0047980110660
1.4040000438690	-0.96943215168787
1.4079999923706	-0.93674294641101
1.4119999408722	-0.90662568317278
1.4160000085831	-0.87898381044152
1.4199999570847	-0.85372667793384
1.4240000247955	-0.83076969834862
1.4279999732971	-0.81003343546185
1.4320000410080	-0.79144437317651
1.4359999895096	-0.77493192616104
1.4400000572205	-0.76042958519837
1.4440000057220	-0.74787406383142
1.4479999542236	-0.73720564074039
1.4520000219345	-0.72836679652845
1.4559999704361	-0.72130215722834
1.4600000381470	-0.71595723488898
1.4639999866486	-0.71228100997207
1.4680000543594	-0.71022013129941
1.4720000028610	-0.70972657892832
1.4759999513626	-0.71074967090034
1.4800000190735	-0.71323948154738
1.4839999675751	-0.71714641829417
1.4880000352859	-0.72242138737497
1.4919999837875	-0.72901249711504
1.4960000514984	-0.73687181767568
1.5000000000000	-0.74594484511571
1.5039999485016	-0.75618193561010
1.5080000162125	-0.76752939442204
1.5119999647141	-0.77993120258630
1.5160000324249	-0.79333479493071
1.5199999809265	-0.80768200489622
1.5240000486374	-0.82291696469646
1.5279999971390	-0.83898281752721
1.5319999456406	-0.85581851144505
1.5360000133514	-0.87336663745947
1.5399999618530	-0.89156700789789
1.5440000295639	-0.91035970743114
1.5479999780655	-0.92968404748319
1.5520000457764	-0.94947994822053
1.5559999942780	-0.96969000028315
1.5599999427795	-0.99025404813118
1.5640000104904	-1.0111152437142
1.5679999589920	-1.0322172506521
1.5720000267029	-1.0535046141097
1.5759999752045	-1.0749275144662
1.5800000429153	-1.0964340503551
1.5839999914169	-1.1179790875504
1.5880000591278	-1.1395163671422
1.5920000076294	-1.1610065665660
1.5959999561310	-1.1824114809355
1.6000000238419	-1.2036988084441
1.6039999723434	-1.2248387787770
1.6080000400543	-1.2458054872201
1.6119999885559	-1.2665796795994
1.6160000562668	-1.2871432255443
1.6200000047684	-1.3074851791441
1.6239999532700	-1.3275977197864
1.6280000209808	-1.3474773011959
1.6319999694824	-1.3671262486970
1.6360000371933	-1.3865491947394
1.6399999856949	-1.4057565956942
1.6440000534058	-1.4247623316623
1.6480000019073	-1.4435830108253
1.6519999504089	-1.4622406532800
1.6560000181198	-1.4807590270766
1.6599999666214	-1.4991660826387
1.6640000343323	-1.5174920409568
1.6679999828339	-1.5357689232643
1.6720000505447	-1.5540322563443
1.6759999990463	-1.5723184612480
1.6799999475479	-1.5906656421767
1.6840000152588	-1.6091132749939
1.6879999637604	-1.6277032254003
1.6920000314713	-1.6464754436876
1.6959999799728	-1.6654716398583
1.7000000476837	-1.6847344585571
1.7039999961853	-1.7043037313873
1.7079999446869	-1.7242235347808
1.7120000123978	-1.7445321416320
1.7159999608994	-1.7652710364902
1.7200000286102	-1.7864773372081
1.7239999771118	-1.8081902248302
1.7280000448227	-1.8304446649003
1.7319999933243	-1.8532749610110
1.7359999418259	-1.8767152381707
1.7400000095367	-1.9007951025716
1.7439999580383	-1.9255443095904
1.7480000257492	-1.9509890593871
1.7519999742508	-1.9771530802874
1.7560000419617	-2.0040604053802
1.7599999904633	-2.0317277673194
1.7640000581741	-2.0601750990314
1.7680000066757	-2.0894161733315
1.7719999551773	-2.1194611685926
1.7760000228882	-2.1503218803552
1.7799999713898	-2.1820033210002
1.7840000391006	-2.2145096654036
1.7879999876022	-2.2478425518257
1.7920000553131	-2.2820016297625
1.7960000038147	-2.3169808254726
1.7999999523163	-2.3527749103730
1.8040000200272	-2.3893745430128
1.8079999685287	-2.4267679463788
1.8120000362396	-2.4649407486631
1.8159999847412	-2.5038781860314
1.8200000524521	-2.5435603924328
1.8240000009537	-2.5839694595954
1.8279999494553	-2.6250804604969
1.8320000171661	-2.6668713499510
1.8359999656677	-2.7093170105864
1.8400000333786	-2.7523906910381
1.8439999818802	-2.7960645676969
1.8480000495911	-2.8403106528067
1.8519999980927	-2.8850993855839
1.8559999465942	-2.9304022377691
1.8600000143051	-2.9761882649965
1.8639999628067	-3.0224286627071
1.8680000305176	-3.0690934520930
1.8719999790192	-3.1161559814274
1.8760000467300	-3.1635837785231
1.8799999952316	-3.2113540732649
1.8839999437332	-3.2594400809871
1.8880000114441	-3.3078162599532
1.8919999599457	-3.3564603478770
1.8960000276566	-3.4053509237504
1.8999999761581	-3.4544688702244
1.9040000438690	-3.5037975152284
1.9079999923706	-3.5533223899515
1.9119999408722	-3.6030294309572
1.9160000085831	-3.6529092473930
1.9199999570847	-3.7029526849077
1.9240000247955	-3.7531551917179
1.9279999732971	-3.8035129029247
1.9320000410080	-3.8540258526777
1.9359999895096	-3.9046941689660
1.9400000572205	-3.9555211704309
1.9440000057220	-4.0065132235341
1.9479999542236	-4.0576784347427
1.9520000219345	-4.1090221737736
1.9559999704361	-4.1605600191144
1.9600000381470	-4.2123001707602
1.9639999866486	-4.2642585774568
1.9680000543594	-4.3164477095812
1.9720000028610	-4.3688829208016
1.9759999513626	-4.4215806687610
1.9800000190735	-4.4745539524159
1.9839999675751	-4.5278206356016
1.9880000352859	-4.5813945523494
1.9919999837875	-4.6352898131923
1.9960000514984	-4.6895214317393
2.0000000000000	-4.7441000003764
2.0039999485016	-4.7990382389365
2.0079998970032	-4.8543443555090
2.0120000839233	-4.9100263758925
2.0160000324249	-4.9660886435365
2.0199999809265	-5.0225345344444
2.0239999294281	-5.0793641752509
2.0280001163483	-5.1365759634424
2.0320000648499	-5.1941624856483
2.0360000133514	-5.2521160181133
2.0399999618530	-5.3104240628813
2.0439999103546	-5.3690725478118
2.0480000972748	-5.4280420585816
2.0520000457764	-5.4873089521334
2.0559999942780	-5.5468499433695
2.0599999427795	-5.6066335593344
2.0639998912811	-5.6666273717101
2.0680000782013	-5.7267955137906
2.0720000267029	-5.7870975559292
2.0759999752045	-5.8474900511421
2.0799999237061	-5.9079281536999
2.0840001106262	-5.9683621254089
2.0880000591278	-6.0287399967470
2.0920000076294	-6.0890078111328
2.0959999561310	-6.1491101520009
2.0999999046326	-6.2089881016649
2.1040000915527	-6.2685822931932
2.1080000400543	-6.3278333328947
2.1119999885559	-6.3866803368590
2.1159999370575	-6.4450610506276
2.1199998855591	-6.5029164583926
2.1240000724792	-6.5601841144030
2.1280000209808	-6.6168063458887
2.1319999694824	-6.6727265787018
2.1359999179840	-6.7278887936781
2.1400001049042	-6.7822396321656
2.1440000534058	-6.8357302529844
2.1480000019073	-6.8883150096620
2.1519999504089	-6.9399512777142
2.1559998989105	-6.9905996121664
2.1600000858307	-7.0402282153577
2.1640000343323	-7.0888068596778
2.1679999828339	-7.1363138314524
2.1719999313354	-7.1827273661890
2.1760001182556	-7.2280362911631
2.1800000667572	-7.2722329951071
2.1840000152588	-7.3153132166940
2.1879999637604	-7.3572821791923
2.1919999122620	-7.3981468256682
2.1960000991821	-7.4379229406763
2.2000000476837	-7.4766271982755
2.2039999961853	-7.5142858042158
2.2079999446869	-7.5509262869160
2.2119998931885	-7.5865829953878
2.2160000801086	-7.6212905996829
2.2200000286102	-7.6550915992074
2.2239999771118	-7.6880308305952
2.2279999256134	-7.7201548911548
2.2320001125336	-7.7515137404775
2.2360000610352	-7.7821595091828
2.2400000095367	-7.8121465512491
2.2439999580383	-7.8415318821662
2.2479999065399	-7.8703693449256
2.2520000934601	-7.8987202210758
2.2560000419617	-7.9266376560244
2.2599999904633	-7.9541821423199
2.2639999389648	-7.9814114988680
2.2679998874664	-8.0083814635553
2.2720000743866	-8.0351479987399
2.2760000228882	-8.0617683164788
2.2799999713898	-8.0882938829576
2.2839999198914	-8.1147766439315
2.2880001068115	-8.1412680497282
2.2920000553131	-8.1678184757383
2.2960000038147	-8.1944706620795
2.2999999523163	-8.2212747115367
2.3039999008179	-8.2482675393524
2.3080000877380	-8.2754943221654
2.3120000362396	-8.3029902441960
2.3159999847412	-8.3307966252627
2.3199999332428	-8.3589408471382
2.3239998817444	-8.3874616506405
2.3280000686646	-8.4163866032910
2.3320000171661	-8.4457434765286
2.3359999656677	-8.4755606093745
2.3399999141693	-8.5058621784027
2.3440001010895	-8.5366735950580
2.3480000495911	-8.5680154207902
2.3519999980927	-8.5999093282620
2.3559999465942	-8.6323757739047
2.3599998950958	-8.6654337015146
2.3640000820160	-8.6991011102112
2.3680000305176	-8.7333981928962
2.3719999790192	-8.7683397676546
2.3759999275208	-8.8039448117355
2.3800001144409	-8.8402322188636
2.3840000629425	-8.8772187063726
2.3880000114441	-8.9149227929941
2.3919999599457	-8.9533646688988
2.3959999084473	-8.9925627833459
2.4000000953674	-9.0325404735252
2.4040000438690	-9.0733185948647
2.4079999923706	-9.1149206329915
2.4119999408722	-9.1573738226440
2.4159998893738	-9.2007026078687
2.4200000762939	-9.2449381905920
2.4240000247955	-9.2901110309142
2.4279999732971	-9.3362544205907
2.4319999217987	-9.3834028899825
2.4360001087189	-9.4315971588864
2.4400000572205	-9.4808761921619
2.4440000057220	-9.5312790546267
2.4479999542236	-9.5828596731056
2.4519999027252	-9.6356650830409
2.4560000896454	-9.6897409748669
2.4600000381470	-9.7451538350305
2.4639999866486	-9.8019467227055
2.4679999351501	-9.8601918479099
2.4719998836517	-9.9199529276770
2.4760000705719	-9.9812930130450
2.4800000190735	-10.044290188369
2.4839999675751	-10.109008944748
2.4879999160767	-10.175539119050
2.4920001029968	-10.243949670354
2.4960000514984	-10.314332697450
2.5000000000000	-10.386782136038
2.5039999485016	-10.461383080054
2.5079998970032	-10.538234103043
2.5120000839233	-10.617437419730
2.5160000324249	-10.699094778085
2.5199999809265	-10.783318351306
2.5239999294281	-10.870224721098
2.5280001163483	-10.959920817720
2.5320000648499	-11.052544160032
2.5360000133514	-11.148210895221
2.5399999618530	-11.247062230674
2.5439999103546	-11.349233064618
2.5480000972748	-11.454870481696
2.5520000457764	-11.564128444082
2.5559999942780	-11.677161495200
2.5599999427795	-11.794136016240
2.5639998912811	-11.915228389699
2.5680000782013	-12.040614591587
2.5720000267029	-12.170492398765
2.5759999752045	-12.305058932602
2.5799999237061	-12.444526686413
2.5840001106262	-12.589117462292
2.5880000591278	-12.739069672237
2.5920000076294	-12.894629035927
2.5959999561310	-13.056063697792
2.5999999046326	-13.223652106354
2.6040000915527	-13.397693482438
2.6080000400543	-13.578504510754
2.6119999885559	-13.766426378437
2.6159999370575	-13.961821283476
2.6199998855591	-14.165079943160
2.6240000724792	-14.376617240554
2.6280000209808	-14.596884126983
2.6319999694824	-14.826360285677
2.6359999179840	-15.065570596280
2.6400001049042	-15.315073724425
2.6440000534058	-15.575477944477
2.6480000019073	-15.847438053285
2.6519999504089	-16.131664540576
2.6559998989105	-16.428920065471
2.6600000858307	-16.740033511079
2.6640000343323	-17.065893982055
2.6679999828339	-17.407454335309
2.6719999313354	-17.765734151221
2.6760001182556	-18.141802461737
2.6800000667572	-18.536775490664
2.6840000152588	-18.951787245008
2.6879999637604	-19.387950718906
2.6919999122620	-19.846276887965
2.6960000991821	-20.327587283261
2.7000000476837	-20.832306156019
2.7039999961853	-21.360217416054
2.7079999446869	-21.910050761643
2.7119998931885	-22.478847586975
2.7160000801086	-23.061093994969
2.7200000286102	-23.647499054533
2.7239999771118	-24.223517108276
2.7279999256134	-24.767753298177
2.7320001125336	-25.251141915144
2.7360000610352	-25.638020580541
2.7400000095367	-25.890751584378
2.7439999580383	-25.978141230990
2.7479999065399	-25.885055893219
2.7520000934601	-25.617866336359
2.7560000419617	-25.202083467395
2.7599999904633	-24.673864035535
2.7639999389648	-24.070482443986
2.7679998874664	-23.424068476235
2.7720000743866	-22.759198619742
2.7760000228882	-22.093121551342
2.7799999713898	-21.437137769912
2.7839999198914	-20.798174154671
2.7880001068115	-20.180133178423
2.7920000553131	-19.584908008193
2.7960000038147	-19.013107091778
2.7999999523163	-18.464532771627
2.8039999008179	-17.938513854299
2.8080000877380	-17.434112209197
2.8120000362396	-16.950251493636
2.8159999847412	-16.485818591078
2.8199999332428	-16.039691751331
2.8239998817444	-15.610795859315
2.8280000686646	-15.198103693999
2.8320000171661	-14.800649379979
2.8359999656677	-14.417537905092
2.8399999141693	-14.047931321287
2.8440001010895	-13.691062307247
2.8480000495911	-13.346218275189
2.8519999980927	-13.012744473734
2.8559999465942	-12.690039367745
2.8599998950958	-12.377545531829
2.8640000820160	-12.074753388617
2.8680000305176	-11.781191532114
2.8719999790192	-11.496423584873
2.8759999275208	-11.220048057655
2.8800001144409	-10.951696223680
2.8840000629425	-10.691022261036
2.8880000114441	-10.437708183285
2.8919999599457	-10.191457167223
2.8959999084473	-9.9519957739281
2.9000000953674	-9.7190650326696
2.9040000438690	-9.4924280793842
2.9079999923706	-9.2718604357925
2.9119999408722	-9.0571505892093
2.9159998893738	-8.8481056052662
2.9200000762939	-8.6445392408772
2.9240000247955	-8.4462767250591
2.9279999732971	-8.2531531650356
2.9319999217987	-8.0650153523105
2.9360001087189	-7.8817142613217
2.9400000572205	-7.7031099902124
2.9440000057220	-7.5290705289005
2.9479999542236	-7.3594680275392
2.9519999027252	-7.1941804639557
2.9560000896454	-7.0330938624648
2.9600000381470	-6.8760953854430
2.9639999866486	-6.7230797592519
2.9679999351501	-6.5739402054266
2.9719998836517	-6.4285807309015
2.9760000705719	-6.2869050472041
2.9800000190735	-6.1488200285303
2.9839999675751	-6.0142352200853
2.9879999160767	-5.8830642201511
2.9920001029968	-5.7552217326249
2.9960000514984	-5.6306256587612
3.0000000000000	-5.5091960273309
3.0039999485016	-5.3908545585951
3.0079998970032	-5.2755269610760
3.0120000839233	-5.1631355507725
3.0160000324249	-5.0536107639822
3.0199999809265	-4.9468798525807
3.0239999294281	-4.8428758038455
3.0280001163483	-4.7415296030242
3.0320000648499	-4.6427749625403
3.0360000133514	-4.5465468336394
3.0399999618530	-4.4527836881473
3.0439999103546	-4.3614216370946
3.0480000972748	-4.2724019266298
3.0520000457764	-4.1856637337824
3.0559999942780	-4.1011492241681
3.0599999427795	-4.0188038058834
3.0639998912811	-3.9385682082460
3.0680000782013	-3.8603907003768
3.0720000267029	-3.7842182337134
3.0759999752045	-3.7099980884931
3.0799999237061	-3.6376806788241
3.0840001106262	-3.5672143704182
3.0880000591278	-3.4985540846643
3.0920000076294	-3.4316487888256
3.0959999561310	-3.3664538054993
3.0999999046326	-3.3029256537508
3.1040000915527	-3.2410185359903
3.1080000400543	-3.1806917294571
3.1119999885559	-3.1219012172848
3.1159999370575	-3.0646089583585
3.1199998855591	-3.0087734597138
3.1240000724792	-2.9543564983313
3.1280000209808	-2.9013187414212
3.1319999694824	-2.8496275877606
3.1359999179840	-2.7992459092641
3.1400001049042	-2.7501363944579
3.1440000534058	-2.7022700205748
3.1480000019073	-2.6556107999162
3.1519999504089	-2.6101283162642
3.1559998989105	-2.5657916724947
3.1600000858307	-2.5225710448614
3.1640000343323	-2.4804359837580
3.1679999828339	-2.4393595372694
3.1719999313354	-2.3993139250074
3.1760001182556	-2.3602719826581
3.1800000667572	-2.3222081036840
3.1840000152588	-2.2850980479131
3.1879999637604	-2.2489160268089
3.1919999122620	-2.2136379295368
3.1960000991821	-2.1792416134520
3.2000000476837	-2.1457056779797
3.2039999961853	-2.1130076413753
3.2079999446869	-2.0811240688574
3.2119998931885	-2.0500378910868
3.2160000801086	-2.0197269393020
3.2200000286102	-1.9901721452939
3.2239999771118	-1.9613559981038
3.2279999256134	-1.9332578514938
3.2320001125336	-1.9058622791532
3.2360000610352	-1.8791494561584
3.2400000095367	-1.8531038145926
3.2439999580383	-1.8277080920802
3.2479999065399	-1.8029466665545
3.2520000934601	-1.7788042992666
3.2560000419617	-1.7552640220054
3.2599999904633	-1.7323126951624
3.2639999389648	-1.7099345041514
3.2679998874664	-1.6881154034181
3.2720000743866	-1.6668410542407
