#Parameters = {FSS=70; FSSX=1; FSSY=-1; MT=0.018; T=0.13; epsilon=9.310150838; g=-10; gl=15; gw=26; hg=18; hgl=-3; hgnd1up=0; hgw=0.5; hgx1=15; hgy1=10; hsll=1.5; hslw=14.5; n=2; phanup=50; phanx=0; phany=0; pl=26; plusex=0; plusey=0; plusl=6.5; plusw=2.5; plusx=4; plusy=4; pw=23; r=17.35655495771; sl=24; sll=-10; sll1=-16; slot1side=0; slot1up=-1; slot2side=0; slot2up=-8; slw=0.5; slw1=0.5; stripl=19; stripw=1.5; stubl=2; stubw=0.5; stubx=-2.5; stw=0.5; stw1=0; sty=1; sw=30; tand=0.512202051; x=17}
#"Frequency / GHz"	"S1,1 (41) [Magnitude]"
#-----------------------------------------
1.0000000000000	-2.9730061037927
1.0039999485016	-2.9825899331842
1.0080000162125	-2.9936125201645
1.0119999647141	-3.0064447588809
1.0160000324249	-3.0214605967209
1.0199999809265	-3.0390418887199
1.0240000486374	-3.0595704009914
1.0279999971390	-3.0834382474150
1.0319999456406	-3.1110396007865
1.0360000133514	-3.1427854990162
1.0399999618530	-3.1790923019632
1.0440000295639	-3.2203959132607
1.0479999780655	-3.2671460893173
1.0520000457764	-3.3198145623770
1.0559999942780	-3.3788987920313
1.0599999427795	-3.4449242483090
1.0640000104904	-3.5184467300713
1.0679999589920	-3.6000586577689
1.0720000267029	-3.6903984568770
1.0759999752045	-3.7901496415610
1.0800000429153	-3.9000498844543
1.0839999914169	-4.0208972424201
1.0880000591278	-4.1535573550463
1.0920000076294	-4.2989725923013
1.0959999561310	-4.4581681718559
1.1000000238419	-4.6322700887625
1.1039999723434	-4.8225032764748
1.1080000400543	-5.0302137913103
1.1119999885559	-5.2568808649595
1.1160000562668	-5.5041279896265
1.1200000047684	-5.7737443993401
1.1239999532700	-6.0676982018335
1.1280000209808	-6.3881555421303
1.1319999694824	-6.7374996259751
1.1360000371933	-7.1183377923676
1.1399999856949	-7.5335128268199
1.1440000534058	-7.9860861744110
1.1480000019073	-8.4792932437412
1.1519999504089	-9.0164338568795
1.1560000181198	-9.6006455423098
1.1599999666214	-10.234480936130
1.1640000343323	-10.919099390279
1.1679999828339	-11.652828312393
1.1720000505447	-12.428641287258
1.1759999990463	-13.229988187071
1.1799999475479	-14.024608411867
1.1840000152588	-14.757396978040
1.1879999637604	-15.347444485192
1.1920000314713	-15.700132490475
1.1959999799728	-15.741929682920
1.2000000476837	-15.460754299106
1.2039999961853	-14.913546743132
1.2079999446869	-14.192710696646
1.2120000123978	-13.385935072093
1.2159999608994	-12.556781308128
1.2200000286102	-11.744126642979
1.2239999771118	-10.968790206261
1.2280000448227	-10.240273190307
1.2319999933243	-9.5615897807881
1.2359999418259	-8.9322401487958
1.2400000095367	-8.3499768733140
1.2439999580383	-7.8117570460136
1.2480000257492	-7.3142793318082
1.2519999742508	-6.8542529614617
1.2560000419617	-6.4285522008163
1.2599999904633	-6.0342616252312
1.2640000581741	-5.6687066517327
1.2680000066757	-5.3294470794434
1.2719999551773	-5.0142690984663
1.2760000228882	-4.7211694987216
1.2799999713898	-4.4483310509521
1.2840000391006	-4.1941134277736
1.2879999876022	-3.9570272869519
1.2920000553131	-3.7357249996704
1.2960000038147	-3.5289845377055
1.2999999523163	-3.3356947046079
1.3040000200272	-3.1548468351182
1.3079999685287	-2.9855229552090
1.3120000362396	-2.8268872281330
1.3159999847412	-2.6781771953009
1.3200000524521	-2.5386979896213
1.3240000009537	-2.4078137245258
1.3279999494553	-2.2849440234591
1.3320000171661	-2.1695579347081
1.3359999656677	-2.0611692029751
1.3400000333786	-1.9593331105098
1.3439999818802	-1.8636391479907
1.3480000495911	-1.7737129700370
1.3519999980927	-1.6892106005482
1.3559999465942	-1.6098168395506
1.3600000143051	-1.5352389424787
1.3639999628067	-1.4652115525038
1.3680000305176	-1.3994855533358
1.3719999790192	-1.3378365844236
1.3760000467300	-1.2800551660774
1.3799999952316	-1.2259469917127
1.3839999437332	-1.1753351988210
1.3880000114441	-1.1280549184269
1.3919999599457	-1.0839547687728
1.3960000276566	-1.0428938804718
1.3999999761581	-1.0047411037422
1.4040000438690	-0.96937712434713
1.4079999923706	-0.93669029796177
1.4119999408722	-0.90657477955611
1.4160000085831	-0.87893460101598
1.4199999570847	-0.85367911766537
1.4240000247955	-0.83072374067077
1.4279999732971	-0.80998960786640
1.4320000410080	-0.79140156887433
1.4359999895096	-0.77489119562219
1.4400000572205	-0.76038976600290
1.4440000057220	-0.74783672502217
1.4479999542236	-0.73716981138595
1.4520000219345	-0.72833291426079
1.4559999704361	-0.72126968008150
1.4600000381470	-0.71592623163496
1.4639999866486	-0.71225178703371
1.4680000543594	-0.71019294082707
1.4720000028610	-0.70970125186651
1.4759999513626	-0.71072611184043
1.4800000190735	-0.71321792541045
1.4839999675751	-0.71712675439137
1.4880000352859	-0.72240319824941
1.4919999837875	-0.72899691734746
1.4960000514984	-0.73685765970113
1.5000000000000	-0.74593378945401
1.5039999485016	-0.75617202230964
1.5080000162125	-0.76752139566210
1.5119999647141	-0.77992540140622
1.5160000324249	-0.79333117056485
1.5199999809265	-0.80768002411085
1.5240000486374	-0.82291789345071
1.5279999971390	-0.83898526394228
1.5319999456406	-0.85582402990017
1.5360000133514	-0.87337416435964
1.5399999618530	-0.89157668812404
1.5440000295639	-0.91037126981838
1.5479999780655	-0.92969787674637
1.5520000457764	-0.94949680625500
1.5559999942780	-0.96970919324668
1.5599999427795	-0.99027403647466
1.5640000104904	-1.0111380799876
1.5679999589920	-1.0322415253076
1.5720000267029	-1.0535318043448
1.5759999752045	-1.0749567919384
1.5800000429153	-1.0964655203659
1.5839999914169	-1.1180123598510
1.5880000591278	-1.1395521238399
1.5920000076294	-1.1610441815028
1.5959999561310	-1.1824515281324
1.6000000238419	-1.2037406468237
1.6039999723434	-1.2248821389988
1.6080000400543	-1.2458517828606
1.6119999885559	-1.2666274440496
1.6160000562668	-1.2871931211359
1.6200000047684	-1.3075362846037
1.6239999532700	-1.3276508010705
1.6280000209808	-1.3475320872900
1.6319999694824	-1.3671829838080
1.6360000371933	-1.3866074684458
1.6399999856949	-1.4058168416709
1.6440000534058	-1.4248239388457
1.6480000019073	-1.4436466281996
1.6519999504089	-1.4623057397815
1.6560000181198	-1.4808254449457
1.6599999666214	-1.4992338602624
1.6640000343323	-1.5175611982450
1.6679999828339	-1.5358401544551
1.6720000505447	-1.5541049170986
1.6759999990463	-1.5723919805357
1.6799999475479	-1.5907410445018
1.6840000152588	-1.6091905494968
1.6879999637604	-1.6277808890861
1.6920000314713	-1.6465550133690
1.6959999799728	-1.6655536806905
1.7000000476837	-1.6848174073224
1.7039999961853	-1.7043890372646
1.7079999446869	-1.7243099611835
1.7120000123978	-1.7446195531422
1.7159999608994	-1.7653603373750
1.7200000286102	-1.7865683070833
1.7239999771118	-1.8082823418061
1.7280000448227	-1.8305391640591
1.7319999933243	-1.8533712146889
1.7359999418259	-1.8768123897574
1.7400000095367	-1.9008950869864
1.7439999580383	-1.9256459698605
1.7480000257492	-1.9510920286578
1.7519999742508	-1.9772585104312
1.7560000419617	-2.0041668588519
1.7599999904633	-2.0318367554448
1.7640000581741	-2.0602859301226
1.7680000066757	-2.0895285340054
1.7719999551773	-2.1195758389575
1.7760000228882	-2.1504387064229
1.7799999713898	-2.1821212982484
1.7840000391006	-2.2146302714031
1.7879999876022	-2.2479654823274
1.7920000553131	-2.2821249468939
1.7960000038147	-2.3171069215740
1.7999999523163	-2.3529029964241
1.8040000200272	-2.3895044814582
1.8079999685287	-2.4268986352522
1.8120000362396	-2.4650745032227
1.8159999847412	-2.5040125336497
1.8200000524521	-2.5436977215533
1.8240000009537	-2.5841070779200
1.8279999494553	-2.6252195234887
1.8320000171661	-2.6670122468062
1.8359999656677	-2.7094585764404
1.8400000333786	-2.7525346358930
1.8439999818802	-2.7962094063478
1.8480000495911	-2.8404566274180
1.8519999980927	-2.8852458120007
1.8559999465942	-2.9305493216721
1.8600000143051	-2.9763349703629
1.8639999628067	-3.0225769478189
1.8680000305176	-3.0692417684663
1.8719999790192	-3.1163030796474
1.8760000467300	-3.1637326645988
1.8799999952316	-3.2115025276075
1.8839999437332	-3.2595877090529
1.8880000114441	-3.3079632578325
1.8919999599457	-3.3566065513533
1.8960000276566	-3.4054960895712
1.8999999761581	-3.4546125699353
1.9040000438690	-3.5039407704699
1.9079999923706	-3.5534628198414
1.9119999408722	-3.6031677926514
1.9160000085831	-3.6530457437994
1.9199999570847	-3.7030875785429
1.9240000247955	-3.7532873318728
1.9279999732971	-3.8036425494236
1.9320000410080	-3.8541516352488
1.9359999895096	-3.9048174592466
1.9400000572205	-3.9556410785061
1.9440000057220	-4.0066294406450
1.9479999542236	-4.0577906579009
1.9520000219345	-4.1091309510079
1.9559999704361	-4.1606635445961
1.9600000381470	-4.2123998605836
1.9639999866486	-4.2643532094798
1.9680000543594	-4.3165372463752
1.9720000028610	-4.3689679156834
1.9759999513626	-4.4216592292593
1.9800000190735	-4.4746272300921
1.9839999675751	-4.5278888858656
1.9880000352859	-4.5814558478653
1.9919999837875	-4.6353459437100
1.9960000514984	-4.6895707528084
2.0000000000000	-4.7441433706736
2.0039999485016	-4.7990736736924
2.0079998970032	-4.8543726978006
2.0120000839233	-4.9100481785908
2.0160000324249	-4.9661021760901
2.0199999809265	-5.0225409735169
2.0239999294281	-5.0793624471070
2.0280001163483	-5.1365655974303
2.0320000648499	-5.1941449919360
2.0360000133514	-5.2520899635387
2.0399999618530	-5.3103892829562
2.0439999103546	-5.3690292432169
2.0480000972748	-5.4279887194172
2.0520000457764	-5.4872481458752
2.0559999942780	-5.5467787879338
2.0599999427795	-5.6065532557756
2.0639998912811	-5.6665381206649
2.0680000782013	-5.7266953978808
2.0720000267029	-5.7869874324940
2.0759999752045	-5.8473708094558
2.0799999237061	-5.9077982300207
2.0840001106262	-5.9682220350440
2.0880000591278	-6.0285895854723
2.0920000076294	-6.0888465381997
2.0959999561310	-6.1489382130820
2.0999999046326	-6.2088056920167
2.1040000915527	-6.2683903835892
2.1080000400543	-6.3276306634830
2.1119999885559	-6.3864667499679
2.1159999370575	-6.4448371504017
2.1199998855591	-6.5026821278699
2.1240000724792	-6.5599392432915
2.1280000209808	-6.6165519749037
2.1319999694824	-6.6724626313153
2.1359999179840	-6.7276135984025
2.1400001049042	-6.7819550903810
2.1440000534058	-6.8354355020497
2.1480000019073	-6.8880108088563
2.1519999504089	-6.9396383847219
2.1559998989105	-6.9902788535542
2.1600000858307	-7.0398983213641
2.1640000343323	-7.0884699173485
2.1679999828339	-7.1359682007261
2.1719999313354	-7.1823734702242
2.1760001182556	-7.2276758551927
2.1800000667572	-7.2718656354657
2.1840000152588	-7.3149398826728
2.1879999637604	-7.3569033273715
2.1919999122620	-7.3977630022680
2.1960000991821	-7.4375341659098
2.2000000476837	-7.4762349363898
2.2039999961853	-7.5138901200032
2.2079999446869	-7.5505277346070
2.2119998931885	-7.5861802567645
2.2160000801086	-7.6208865733966
2.2200000286102	-7.6546871884017
2.2239999771118	-7.6876248422242
2.2279999256134	-7.7197487840138
2.2320001125336	-7.7511079841689
2.2360000610352	-7.7817547926390
2.2400000095367	-7.8117437591851
2.2439999580383	-7.8411306925335
2.2479999065399	-7.8699711716860
2.2520000934601	-7.8983237619265
2.2560000419617	-7.9262457805741
2.2599999904633	-7.9537939562539
2.2639999389648	-7.9810280605530
2.2679998874664	-8.0080036176198
2.2720000743866	-8.0347758871167
2.2760000228882	-8.0614020030420
2.2799999713898	-8.0879334257895
2.2839999198914	-8.1144254644853
2.2880001068115	-8.1409244561847
2.2920000553131	-8.1674817446133
2.2960000038147	-8.1941442380220
2.2999999523163	-8.2209554963954
2.3039999008179	-8.2479587766076
2.3080000877380	-8.2751945135443
2.3120000362396	-8.3027031788869
2.3159999847412	-8.3305179885177
2.3199999332428	-8.3586742294498
2.3239998817444	-8.3872053514655
2.3280000686646	-8.4161417103691
2.3320000171661	-8.4455108710852
2.3359999656677	-8.4753399392205
2.3399999141693	-8.5056549929040
2.3440001010895	-8.5364782607146
2.3480000495911	-8.5678330564700
2.3519999980927	-8.5997411943425
2.3559999465942	-8.6322200989567
2.3599998950958	-8.6652912136830
2.3640000820160	-8.6989737285113
2.3680000305176	-8.7332838185682
2.3719999790192	-8.7682399225283
2.3759999275208	-8.8038608115235
2.3800001144409	-8.8401630183728
2.3840000629425	-8.8771643444330
2.3880000114441	-8.9148831363877
2.3919999599457	-8.9533398170597
2.3959999084473	-8.9925546598920
2.4000000953674	-9.0325461575224
2.4040000438690	-9.0733405917625
2.4079999923706	-9.1149584148702
2.4119999408722	-9.1574264754945
2.4159998893738	-9.2007713113646
2.4200000762939	-9.2450216993941
2.4240000247955	-9.2902112754522
2.4279999732971	-9.3363693392366
2.4319999217987	-9.3835352054268
2.4360001087189	-9.4317437969120
2.4400000572205	-9.4810375646452
2.4440000057220	-9.5314603839868
2.4479999542236	-9.5830549364938
2.4519999027252	-9.6358728009492
2.4560000896454	-9.6899695779056
2.4600000381470	-9.7453928060087
2.4639999866486	-9.8022032008794
2.4679999351501	-9.8604666655371
2.4719998836517	-9.9202390081726
2.4760000705719	-9.9815930194515
2.4800000190735	-10.044605692931
2.4839999675751	-10.109344405136
2.4879999160767	-10.175885643441
2.4920001029968	-10.244312264271
2.4960000514984	-10.314711923900
2.5000000000000	-10.387173599659
2.5039999485016	-10.461791298465
2.5079998970032	-10.538655797227
2.5120000839233	-10.617872903144
2.5160000324249	-10.699547909407
2.5199999809265	-10.783786126529
2.5239999294281	-10.870702097420
2.5280001163483	-10.960417259592
2.5320000648499	-11.053051365406
2.5360000133514	-11.148737927961
2.5399999618530	-11.247601049024
2.5439999103546	-11.349787531613
2.5480000972748	-11.455437809318
2.5520000457764	-11.564710548178
2.5559999942780	-11.677757301303
2.5599999427795	-11.794746846283
2.5639998912811	-11.915851696648
2.5680000782013	-12.041253627500
2.5720000267029	-12.171144208770
2.5759999752045	-12.305725003296
2.5799999237061	-12.445206275147
2.5840001106262	-12.589813309899
2.5880000591278	-12.739777938357
2.5920000076294	-12.895352146112
2.5959999561310	-13.056800090544
2.5999999046326	-13.224403074657
2.6040000915527	-13.398458274019
2.6080000400543	-13.579282761839
2.6119999885559	-13.767219045973
2.6159999370575	-13.962627527219
2.6199998855591	-14.165899323112
2.6240000724792	-14.377452103460
2.6280000209808	-14.597730233906
2.6319999694824	-14.827220916682
2.6359999179840	-15.066443127906
2.6400001049042	-15.315960040112
2.6440000534058	-15.576375888535
2.6480000019073	-15.848347172937
2.6519999504089	-16.132585375474
2.6559998989105	-16.429850374651
2.6600000858307	-16.740972506324
2.6640000343323	-17.066839592337
2.6679999828339	-17.408407424941
2.6719999313354	-17.766687045848
2.6760001182556	-18.142755569529
2.6800000667572	-18.537724785690
2.6840000152588	-18.952728806133
2.6879999637604	-19.388874574808
2.6919999122620	-19.847178937066
2.6960000991821	-20.328451223536
2.7000000476837	-20.833119342139
2.7039999961853	-21.360960527920
2.7079999446869	-21.910696707200
2.7119998931885	-22.479360198666
2.7160000801086	-23.061436095506
2.7200000286102	-23.647621543736
2.7239999771118	-24.223352395676
2.7279999256134	-24.767235628254
2.7320001125336	-25.250211619741
2.7360000610352	-25.636632291929
2.7400000095367	-25.888897378445
2.7439999580383	-25.975888535927
2.7479999065399	-25.882510543967
2.7520000934601	-25.615176609961
2.7560000419617	-25.199400379971
2.7599999904633	-24.671286233734
2.7639999389648	-24.068074460516
2.7679998874664	-23.421871320737
2.7720000743866	-22.757225413592
2.7760000228882	-22.091360978897
2.7799999713898	-21.435576423407
2.7839999198914	-20.796792308875
2.7880001068115	-20.178915100897
2.7920000553131	-19.583836179158
2.7960000038147	-19.012162975813
2.7999999523163	-18.463704063210
2.8039999008179	-17.937785387266
2.8080000877380	-17.433473264012
2.8120000362396	-16.949693879025
2.8159999847412	-16.485330330862
2.8199999332428	-16.039269233392
2.8239998817444	-15.610429391178
2.8280000686646	-15.197788273587
2.8320000171661	-14.800382570458
2.8359999656677	-14.417311021779
2.8399999141693	-14.047743778131
2.8440001010895	-13.690906751271
2.8480000495911	-13.346094234269
2.8519999980927	-13.012648657218
2.8559999465942	-12.689968432408
2.8599998950958	-12.377498224373
2.8640000820160	-12.074727424133
2.8680000305176	-11.781183720479
2.8719999790192	-11.496433217319
2.8759999275208	-11.220073644482
2.8800001144409	-10.951736112710
2.8840000629425	-10.691076985951
2.8880000114441	-10.437773103177
2.8919999599457	-10.191532526479
2.8959999084473	-9.9520805009357
2.9000000953674	-9.7191594155688
2.9040000438690	-9.4925295813531
2.9079999923706	-9.2719685121329
2.9119999408722	-9.0572660134434
2.9159998893738	-8.8482260982804
2.9200000762939	-8.6446637467175
2.9240000247955	-8.4464059992601
2.9279999732971	-8.2532860385672
2.9319999217987	-8.0651510424941
2.9360001087189	-7.8818527522582
2.9400000572205	-7.7032504386719
2.9440000057220	-7.5292128945248
2.9479999542236	-7.3596123079537
2.9519999027252	-7.1943262885887
2.9560000896454	-7.0332403998908
2.9600000381470	-6.8762430544990
2.9639999866486	-6.7232268699217
2.9679999351501	-6.5740884749332
2.9719998836517	-6.4287299380770
2.9760000705719	-6.2870532654438
2.9800000190735	-6.1489665794024
2.9839999675751	-6.0143821193038
2.9879999160767	-5.8832098802689
2.9920001029968	-5.7553661343253
2.9960000514984	-5.6307694766727
3.0000000000000	-5.5093388482247
3.0039999485016	-5.3909965245910
3.0079998970032	-5.2756661534378
3.0120000839233	-5.1632735510095
3.0160000324249	-5.0537478775641
3.0199999809265	-4.9470157289485
3.0239999294281	-4.8430087415331
3.0280001163483	-4.7416611585673
3.0320000648499	-4.6429044237378
3.0360000133514	-4.5466750849850
3.0399999618530	-4.4529105065990
3.0439999103546	-4.3615471110612
3.0480000972748	-4.2725245229539
3.0520000457764	-4.1857855577878
3.0559999942780	-4.1012697574697
3.0599999427795	-4.0189203649872
3.0639998912811	-3.9386837225362
3.0680000782013	-3.8605045292773
3.0720000267029	-3.7843294776768
3.0759999752045	-3.7101079771374
3.0799999237061	-3.6377879694738
3.0840001106262	-3.5673204740851
3.0880000591278	-3.4986565477446
3.0920000076294	-3.4317495685809
3.0959999561310	-3.3665543918749
3.0999999046326	-3.3030234597480
3.1040000915527	-3.2411160273350
3.1080000400543	-3.1807868181895
3.1119999885559	-3.1219947955920
3.1159999370575	-3.0646998693767
3.1199998855591	-3.0088624660255
3.1240000724792	-2.9544434446221
3.1280000209808	-2.9014052325135
3.1319999694824	-2.8497113440020
3.1359999179840	-2.7993285542135
3.1400001049042	-2.7502187860257
3.1440000534058	-2.7023498644023
3.1480000019073	-2.6556901330864
3.1519999504089	-2.6102050177581
3.1559998989105	-2.5658668926120
3.1600000858307	-2.5226442002507
3.1640000343323	-2.4805087680965
3.1679999828339	-2.4394313151185
3.1719999313354	-2.3993833737498
3.1760001182556	-2.3603407148237
3.1800000667572	-2.3222745689566
3.1840000152588	-2.2851633465580
3.1879999637604	-2.2489802748178
3.1919999122620	-2.2137017945640
3.1960000991821	-2.1793048518778
3.2000000476837	-2.1457678636804
3.2039999961853	-2.1130668633555
3.2079999446869	-2.0811835460045
3.2119998931885	-2.0500961984016
3.2160000801086	-2.0197835716015
3.2200000286102	-1.9902285904342
3.2239999771118	-1.9614113490357
3.2279999256134	-1.9333119591168
3.2320001125336	-1.9059151604693
3.2360000610352	-1.8792013282077
3.2400000095367	-1.8531553513670
3.2439999580383	-1.8277588414717
3.2479999065399	-1.8029960892459
3.2520000934601	-1.7788525812531
3.2560000419617	-1.7553117682321
3.2599999904633	-1.7323586843957
3.2639999389648	-1.7099800923638
3.2679998874664	-1.6881603540694
3.2720000743866	-1.6668853993248
