#Parameters = {FSS=70; FSSX=1; FSSY=-1; MT=0.018; T=0.13; epsilon=9.446452383; g=-10; gl=15; gw=26; hg=18; hgl=-3; hgnd1up=0; hgw=0.5; hgx1=15; hgy1=10; hsll=1.5; hslw=14.5; n=2; phanup=50; phanx=0; phany=0; pl=26; plusex=0; plusey=0; plusl=6.5; plusw=2.5; plusx=4; plusy=4; pw=23; r=17.35655495771; sl=24; sll=-10; sll1=-16; slot1side=0; slot1up=-1; slot2side=0; slot2up=-8; slw=0.5; slw1=0.5; stripl=19; stripw=1.5; stubl=2; stubw=0.5; stubx=-2.5; stw=0.5; stw1=0; sty=1; sw=30; tand=0.509205736; x=17}
#"Frequency / GHz"	"S1,1 (54) [Magnitude]"
#-----------------------------------------
1.0000000000000	-2.9729981211674
1.0039999485016	-2.9825545982607
1.0080000162125	-2.9935495134866
1.0119999647141	-3.0063539268029
1.0160000324249	-3.0213441470736
1.0199999809265	-3.0388992940599
1.0240000486374	-3.0594018645392
1.0279999971390	-3.0832438407415
1.0319999456406	-3.1108219562209
1.0360000133514	-3.1425434422678
1.0399999618530	-3.1788275883961
1.0440000295639	-3.2201094014122
1.0479999780655	-3.2668401561619
1.0520000457764	-3.3194903587069
1.0559999942780	-3.3785573236872
1.0599999427795	-3.4445663077942
1.0640000104904	-3.5180740523227
1.0679999589920	-3.5996742508732
1.0720000267029	-3.6900041937177
1.0759999752045	-3.7897480402047
1.0800000429153	-3.8996417428098
1.0839999914169	-4.0204869241663
1.0880000591278	-4.1531482084061
1.0920000076294	-4.2985679241442
1.0959999561310	-4.4577744651889
1.1000000238419	-4.6318889799052
1.1039999723434	-4.8221412004984
1.1080000400543	-5.0298766036850
1.1119999885559	-5.2565760345409
1.1160000562668	-5.5038658932204
1.1200000047684	-5.7735323931938
1.1239999532700	-6.0675498559158
1.1280000209808	-6.3880824685541
1.1319999694824	-6.7375173472976
1.1360000371933	-7.1184657133023
1.1399999856949	-7.5337734363860
1.1440000534058	-7.9865058584781
1.1480000019073	-8.4799028044574
1.1519999504089	-9.0172714723786
1.1560000181198	-9.6017576769030
1.1599999666214	-10.235920888388
1.1640000343323	-10.920932814308
1.1679999828339	-11.655127844958
1.1720000505447	-12.431480307509
1.1759999990463	-13.233429110319
1.1799999475479	-14.028666168826
1.1840000152588	-14.761983168421
1.1879999637604	-15.352297281473
1.1920000314713	-15.704790435947
1.1959999799728	-15.745866085706
1.2000000476837	-15.463576251420
1.2039999961853	-14.915152718184
1.2079999446869	-14.193235147351
1.2120000123978	-13.385611405350
1.2159999608994	-12.555842376005
1.2200000286102	-11.742761779324
1.2239999771118	-10.967144897309
1.2280000448227	-10.238445518650
1.2319999933243	-9.5596471447491
1.2359999418259	-8.9302380293766
1.2400000095367	-8.3479457010459
1.2439999580383	-7.8097234110564
1.2480000257492	-7.3122595352541
1.2519999742508	-6.8522598321587
1.2560000419617	-6.4265929065163
1.2599999904633	-6.0323431181755
1.2640000581741	-5.6668304391025
1.2680000066757	-5.3276179522083
1.2719999551773	-5.0124883646647
1.2760000228882	-4.7194365172321
1.2799999713898	-4.4466474198623
1.2840000391006	-4.1924770601825
1.2879999876022	-3.9554380751228
1.2920000553131	-3.7341827991424
1.2960000038147	-3.5274868907603
1.2999999523163	-3.3342401756289
1.3040000200272	-3.1534357530568
1.3079999685287	-2.9841532272841
1.3120000362396	-2.8255565989194
1.3159999847412	-2.6768856965603
1.3200000524521	-2.5374437781735
1.3240000009537	-2.4065962707945
1.3279999494553	-2.2837607898961
1.3320000171661	-2.1684087156734
1.3359999656677	-2.0600526200833
1.3400000333786	-1.9582469844240
1.3439999818802	-1.8625836355359
1.3480000495911	-1.7726877185811
1.3519999980927	-1.6882136628200
1.3559999465942	-1.6088477072899
1.3600000143051	-1.5342970684638
1.3639999628067	-1.4642954095869
1.3680000305176	-1.3985947382805
1.3719999790192	-1.3369700702712
1.3760000467300	-1.2792128190236
1.3799999952316	-1.2251279346680
1.3839999437332	-1.1745395811550
1.3880000114441	-1.1272815629256
1.3919999599457	-1.0832038712808
1.3960000276566	-1.0421644797120
1.3999999761581	-1.0040340242966
1.4040000438690	-0.96869158416914
1.4079999923706	-0.93602496992829
1.4119999408722	-0.90593012662872
1.4160000085831	-0.87831112760954
1.4199999570847	-0.85307619636232
1.4240000247955	-0.83014149769332
1.4279999732971	-0.80942804044373
1.4320000410080	-0.79086133413769
1.4359999895096	-0.77437142881090
1.4400000572205	-0.75989172581283
1.4440000057220	-0.74735902789228
1.4479999542236	-0.73671375691198
1.4520000219345	-0.72789833690396
1.4559999704361	-0.72085708896183
1.4600000381470	-0.71553637686420
1.4639999866486	-0.71188423326008
1.4680000543594	-0.70984919118533
1.4720000028610	-0.70938007608120
1.4759999513626	-0.71042841611897
1.4800000190735	-0.71294399741841
1.4839999675751	-0.71687749931276
1.4880000352859	-0.72217872703230
1.4919999837875	-0.72879789373462
1.4960000514984	-0.73668441075865
1.5000000000000	-0.74578704695315
1.5039999485016	-0.75605194804028
1.5080000162125	-0.76742815627631
1.5119999647141	-0.77986026259217
1.5160000324249	-0.79329319239383
1.5199999809265	-0.80767107203279
1.5240000486374	-0.82293793655347
1.5279999971390	-0.83903316673849
1.5319999456406	-0.85590155645413
1.5360000133514	-0.87348185474134
1.5399999618530	-0.89171370716604
1.5440000295639	-0.91053863854394
1.5479999780655	-0.92989539193942
1.5520000457764	-0.94972426249290
1.5559999942780	-0.96996668611121
1.5599999427795	-0.99056331894797
1.5640000104904	-1.0114568338824
1.5679999589920	-1.0325903413233
1.5720000267029	-1.0539111736613
1.5759999752045	-1.0753655306965
1.5800000429153	-1.0969035808161
1.5839999914169	-1.1184803325199
1.5880000591278	-1.1400489812179
1.5920000076294	-1.1615695397573
1.5959999561310	-1.1830047866805
1.6000000238419	-1.2043219783689
1.6039999723434	-1.2254912230607
1.6080000400543	-1.2464868410625
1.6119999885559	-1.2672887898739
1.6160000562668	-1.2878801614336
1.6200000047684	-1.3082491727934
1.6239999532700	-1.3283883883689
1.6280000209808	-1.3482938098998
1.6319999694824	-1.3679678989881
1.6360000371933	-1.3874159583650
1.6399999856949	-1.4066473449108
1.6440000534058	-1.4256766876968
1.6480000019073	-1.4445207178087
1.6519999504089	-1.4632007658140
1.6560000181198	-1.4817419649823
1.6599999666214	-1.5001708929092
1.6640000343323	-1.5185177653887
1.6679999828339	-1.5368152914633
1.6720000505447	-1.5550998345127
1.6759999990463	-1.5734069383869
1.6799999475479	-1.5917734463698
1.6840000152588	-1.6102418821537
1.6879999637604	-1.6288518742905
1.6920000314713	-1.6476449433866
1.6959999799728	-1.6666607099838
1.7000000476837	-1.6859428809976
1.7039999961853	-1.7055337294120
1.7079999446869	-1.7254731813293
1.7120000123978	-1.7458024224973
1.7159999608994	-1.7665608617331
1.7200000286102	-1.7877887176833
1.7239999771118	-1.8095218006941
1.7280000448227	-1.8317968149480
1.7319999933243	-1.8546493220879
1.7359999418259	-1.8781099888621
1.7400000095367	-1.9022119869315
1.7439999580383	-1.9269825592932
1.7480000257492	-1.9524495080847
1.7519999742508	-1.9786357208243
1.7560000419617	-2.0055657792244
1.7599999904633	-2.0332559048354
1.7640000581741	-2.0617253162826
1.7680000066757	-2.0909892703059
1.7719999551773	-2.1210581406609
1.7760000228882	-2.1519413749388
1.7799999713898	-2.1836456635290
1.7840000391006	-2.2161757298759
1.7879999876022	-2.2495324862364
1.7920000553131	-2.2837134882460
1.7960000038147	-2.3187150414825
1.7999999523163	-2.3545303123883
1.8040000200272	-2.3911522741559
1.8079999685287	-2.4285667006727
1.8120000362396	-2.4667619485890
1.8159999847412	-2.5057186692500
1.8200000524521	-2.5454206922724
1.8240000009537	-2.5858467066078
1.8279999494553	-2.6269764457659
1.8320000171661	-2.6687841567440
1.8359999656677	-2.7112461314803
1.8400000333786	-2.7543331503485
1.8439999818802	-2.7980199213683
1.8480000495911	-2.8422777361061
1.8519999980927	-2.8870770380657
1.8559999465942	-2.9323864544024
1.8600000143051	-2.9781798715873
1.8639999628067	-3.0244242571895
1.8680000305176	-3.0710927231442
1.8719999790192	-3.1181536076013
1.8760000467300	-3.1655820861409
1.8799999952316	-3.2133485821585
1.8839999437332	-3.2614276819184
1.8880000114441	-3.3097952687709
1.8919999599457	-3.3584283519454
1.8960000276566	-3.4073056314768
1.8999999761581	-3.4564074244342
1.9040000438690	-3.5057169410688
1.9079999923706	-3.5552195800555
1.9119999408722	-3.6049028316429
1.9160000085831	-3.6547556008727
1.9199999570847	-3.7047693140613
1.9240000247955	-3.7549388968557
1.9279999732971	-3.8052610012248
1.9320000410080	-3.8557342176197
1.9359999895096	-3.9063610435886
1.9400000572205	-3.9571443370944
1.9440000057220	-4.0080890964904
1.9479999542236	-4.0592019828713
1.9520000219345	-4.1104941445231
1.9559999704361	-4.1619743397246
1.9600000381470	-4.2136559534075
1.9639999866486	-4.2655507850495
1.9680000543594	-4.3176750971316
1.9720000028610	-4.3700423900715
1.9759999513626	-4.4226671738482
1.9800000190735	-4.4755672941116
1.9839999675751	-4.5287568618042
1.9880000352859	-4.5822502417635
1.9919999837875	-4.6360633353941
1.9960000514984	-4.6902085798863
2.0000000000000	-4.7446977310622
2.0039999485016	-4.7995440598252
2.0079998970032	-4.8547553723418
2.0120000839233	-4.9103402658360
2.0160000324249	-4.9663013809105
2.0199999809265	-5.0226445806382
2.0239999294281	-5.0793679786606
2.0280001163483	-5.1364695412756
2.0320000648499	-5.1939444037361
2.0360000133514	-5.2517837590189
2.0399999618530	-5.3099747050631
2.0439999103546	-5.3685034607320
2.0480000972748	-5.4273494906039
2.0520000457764	-5.4864921082314
2.0559999942780	-5.5459042905139
2.0599999427795	-5.6055578548098
2.0639998912811	-5.6654193426650
2.0680000782013	-5.7254528354274
2.0720000267029	-5.7856168043785
2.0759999752045	-5.8458716318206
2.0799999237061	-5.9061697298387
2.0840001106262	-5.9664616576224
2.0880000591278	-6.0266947172699
2.0920000076294	-6.0868186417155
2.0959999561310	-6.1467743753092
2.0999999046326	-6.2065067739403
2.1040000915527	-6.2659528523606
2.1080000400543	-6.3250569836367
2.1119999885559	-6.3837561724435
2.1159999370575	-6.4419909102329
2.1199998855591	-6.4996993055476
2.1240000724792	-6.5568224918076
2.1280000209808	-6.6133002542109
2.1319999694824	-6.6690781332377
2.1359999179840	-6.7241002983969
2.1400001049042	-6.7783139855972
2.1440000534058	-6.8316697630443
2.1480000019073	-6.8841229884513
2.1519999504089	-6.9356304072065
2.1559998989105	-6.9861561153854
2.1600000858307	-7.0356660116184
2.1640000343323	-7.0841301133324
2.1679999828339	-7.1315273342647
2.1719999313354	-7.1778364745622
2.1760001182556	-7.2230474053147
2.1800000667572	-7.2671514983872
2.1840000152588	-7.3101463224519
2.1879999637604	-7.3520372804134
2.1919999122620	-7.3928292646588
2.1960000991821	-7.4325407465096
2.2000000476837	-7.4711873547419
2.2039999961853	-7.5087957160698
2.2079999446869	-7.5453934859276
2.2119998931885	-7.5810159238768
2.2160000801086	-7.6156969821813
2.2200000286102	-7.6494793474804
2.2239999771118	-7.6824077454416
2.2279999256134	-7.7145295917528
2.2320001125336	-7.7458933906331
2.2360000610352	-7.7765533277691
2.2400000095367	-7.8065613885082
2.2439999580383	-7.8359759761111
2.2479999065399	-7.8648510302169
2.2520000934601	-7.8932447839314
2.2560000419617	-7.9212152933847
2.2599999904633	-7.9488198096743
2.2639999389648	-7.9761160328331
2.2679998874664	-8.0031619066158
2.2720000743866	-8.0300091876311
2.2760000228882	-8.0567179417128
2.2799999713898	-8.0833380264894
2.2839999198914	-8.1099230131962
2.2880001068115	-8.1365237729961
2.2920000553131	-8.1631887658474
2.2960000038147	-8.1899619057383
2.2999999523163	-8.2168921245663
2.3039999008179	-8.2440177821520
2.3080000877380	-8.2713811794513
2.3120000362396	-8.2990220156643
2.3159999847412	-8.3269749366860
2.3199999332428	-8.3552750864996
2.3239998817444	-8.3839525035182
2.3280000686646	-8.4130408244837
2.3320000171661	-8.4425659526150
2.3359999656677	-8.4725546266179
2.3399999141693	-8.5030341151716
2.3440001010895	-8.5340239117283
2.3480000495911	-8.5655493165038
2.3519999980927	-8.5976306849312
2.3559999465942	-8.6302875538906
2.3599998950958	-8.6635396906468
2.3640000820160	-8.6974039514457
2.3680000305176	-8.7319001785174
2.3719999790192	-8.7670441250649
2.3759999275208	-8.8028546185515
2.3800001144409	-8.8393485243131
2.3840000629425	-8.8765449686083
2.3880000114441	-8.9144606684443
2.3919999599457	-8.9531156105277
2.3959999084473	-8.9925286915510
2.4000000953674	-9.0327221161472
2.4040000438690	-9.0737170004372
2.4079999923706	-9.1155376224874
2.4119999408722	-9.1582088338781
2.4159998893738	-9.2017588672595
2.4200000762939	-9.2462143052592
2.4240000247955	-9.2916084614699
2.4279999732971	-9.3379729332941
2.4319999217987	-9.3853434094519
2.4360001087189	-9.4337572139112
2.4400000572205	-9.4832583227584
2.4440000057220	-9.5338811499671
2.4479999542236	-9.5856848618056
2.4519999027252	-9.6387060683812
2.4560000896454	-9.6930013716455
2.4600000381470	-9.7486307851709
2.4639999866486	-9.8056479348666
2.4679999351501	-9.8641094407184
2.4719998836517	-9.9240843600618
2.4760000705719	-9.9856414267319
2.4800000190735	-10.048847041365
2.4839999675751	-10.113779636929
2.4879999160767	-10.180519747794
2.4920001029968	-10.249147725102
2.4960000514984	-10.319741038672
2.5000000000000	-10.392395965222
2.5039999485016	-10.467207442520
2.5079998970032	-10.544260566554
2.5120000839233	-10.623665566946
2.5160000324249	-10.705538677362
2.5199999809265	-10.789964081702
2.5239999294281	-10.877068413740
2.5280001163483	-10.966972472894
2.5320000648499	-11.059793959150
2.5360000133514	-11.155658946578
2.5399999618530	-11.254713564798
2.5439999103546	-11.357083016269
2.5480000972748	-11.462919617950
2.5520000457764	-11.572372742390
2.5559999942780	-11.685603019513
2.5599999427795	-11.802776107191
2.5639998912811	-11.924063597478
2.5680000782013	-12.049649297133
2.5720000267029	-12.179720952702
2.5759999752045	-12.314483989385
2.5799999237061	-12.454148132060
2.5840001106262	-12.598934969084
2.5880000591278	-12.749083468945
2.5920000076294	-12.904838272133
2.5959999561310	-13.066468403757
2.5999999046326	-13.234251161413
2.6040000915527	-13.408488651310
2.6080000400543	-13.589493789778
2.6119999885559	-13.777608892592
2.6159999370575	-13.973196873648
2.6199998855591	-14.176646322898
2.6240000724792	-14.388374085336
2.6280000209808	-14.608827786777
2.6319999694824	-14.838489725150
2.6359999179840	-15.077879964384
2.6400001049042	-15.327558743997
2.6440000534058	-15.588132576982
2.6480000019073	-15.860254160900
2.6519999504089	-16.144630382371
2.6559998989105	-16.442024941169
2.6600000858307	-16.753260928642
2.6640000343323	-17.079218272452
2.6679999828339	-17.420852993212
2.6719999313354	-17.779168913098
2.6760001182556	-18.155230000593
2.6800000667572	-18.550139609399
2.6840000152588	-18.965015143393
2.6879999637604	-19.400944396171
2.6919999122620	-19.858913802787
2.6960000991821	-20.339702383026
2.7000000476837	-20.843690421570
2.7039999961853	-21.370590651501
2.7079999446869	-21.919057928865
2.7119998931885	-22.486012125346
2.7160000801086	-23.065831237158
2.7200000286102	-23.649063493483
2.7239999771118	-24.221030802471
2.7279999256134	-24.760257536466
2.7320001125336	-25.237740215959
2.7360000610352	-25.618119176865
2.7400000095367	-25.864355974463
2.7439999580383	-25.946087003482
2.7479999065399	-25.848963282490
2.7520000934601	-25.579768644109
2.7560000419617	-25.163963032274
2.7599999904633	-24.637250228964
2.7639999389648	-24.036354918423
2.7679998874664	-23.392912625432
2.7720000743866	-22.731145934569
2.7760000228882	-22.068083373295
2.7799999713898	-21.414911768666
2.7839999198914	-20.778510336489
2.7880001068115	-20.162772007282
2.7920000553131	-19.569600467672
2.7960000038147	-18.999622329205
2.7999999523163	-18.452666324281
2.8039999008179	-17.928085437713
2.8080000877380	-17.424958923984
2.8120000362396	-16.942237519198
2.8159999847412	-16.478818413391
2.8199999332428	-16.033601440818
2.8239998817444	-15.605518388369
2.8280000686646	-15.193558352434
2.8320000171661	-14.796764374030
2.8359999656677	-14.414245834379
2.8399999141693	-14.045176555390
2.8440001010895	-13.688793816809
2.8480000495911	-13.344389380333
2.8519999980927	-13.011314722427
2.8559999465942	-12.688972466231
2.8599998950958	-12.376807167436
2.8640000820160	-12.074314982335
2.8680000305176	-11.781024105027
2.8719999790192	-11.496503683750
2.8759999275208	-11.220353358378
2.8800001144409	-10.952204816815
2.8840000629425	-10.691715039076
2.8880000114441	-10.438568119768
2.8919999599457	-10.192468826296
2.8959999084473	-9.9531426889385
2.9000000953674	-9.7203359845995
2.9040000438690	-9.4938095342571
2.9079999923706	-9.2733397577169
2.9119999408722	-9.0587196554415
2.9159998893738	-8.8497542570143
2.9200000762939	-8.6462565163546
2.9240000247955	-8.4480544253483
2.9279999732971	-8.2549836804363
2.9319999217987	-8.0668933322811
2.9360001087189	-7.8836312200308
2.9400000572205	-7.7050600068362
2.9440000057220	-7.5310476453714
2.9479999542236	-7.3614680373719
2.9519999027252	-7.1961987091958
2.9560000896454	-7.0351244395884
2.9600000381470	-6.8781358120696
2.9639999866486	-6.7251230583622
2.9679999351501	-6.5759877869139
2.9719998836517	-6.4306262649733
2.9760000705719	-6.2889464172377
2.9800000190735	-6.1508532510660
2.9839999675751	-6.0162585657883
2.9879999160767	-5.8850751936367
2.9920001029968	-5.7572187135316
2.9960000514984	-5.6326080758200
3.0000000000000	-5.5111598722223
3.0039999485016	-5.3928000994102
3.0079998970032	-5.2774510619238
3.0120000839233	-5.1650391197672
3.0160000324249	-5.0554912107076
3.0199999809265	-4.9487375497602
3.0239999294281	-4.8447091468700
3.0280001163483	-4.7433371195341
3.0320000648499	-4.6445562319288
3.0360000133514	-4.5483042450931
3.0399999618530	-4.4545131720740
3.0439999103546	-4.3631249381410
3.0480000972748	-4.2740779017484
3.0520000457764	-4.1873126066651
3.0559999942780	-4.1027714386510
3.0599999427795	-4.0203971074381
3.0639998912811	-3.9401354999270
3.0680000782013	-3.8619312285338
3.0720000267029	-3.7857303842987
3.0759999752045	-3.7114828455698
3.0799999237061	-3.6391382404205
3.0840001106262	-3.5686459729698
3.0880000591278	-3.4999586908360
3.0920000076294	-3.4330276652873
3.0959999561310	-3.3678059752324
3.0999999046326	-3.3042531071813
3.1040000915527	-3.2423214151011
3.1080000400543	-3.1819700719613
3.1119999885559	-3.1231558356379
3.1159999370575	-3.0658384634928
3.1199998855591	-3.0099788041234
3.1240000724792	-2.9555388392636
3.1280000209808	-2.9024799413006
3.1319999694824	-2.8507666471948
3.1359999179840	-2.8003622951342
3.1400001049042	-2.7512331686478
3.1440000534058	-2.7033450181144
3.1480000019073	-2.6566661150862
3.1519999504089	-2.6111634091132
3.1559998989105	-2.5668072125276
3.1600000858307	-2.5235666243100
3.1640000343323	-2.4814137414138
3.1679999828339	-2.4403189344093
3.1719999313354	-2.4002560692220
3.1760001182556	-2.3611967356056
3.1800000667572	-2.3231157157950
3.1840000152588	-2.2859885577738
3.1879999637604	-2.2497900277706
3.1919999122620	-2.2144969852906
3.1960000991821	-2.1800853059678
3.2000000476837	-2.1465339876644
3.2039999961853	-2.1138209164619
3.2079999446869	-2.0819231827563
3.2119998931885	-2.0508224523653
3.2160000801086	-2.0204978379908
3.2200000286102	-1.9909304264240
3.2239999771118	-1.9620996121686
3.2279999256134	-1.9339890403631
3.2320001125336	-1.9065796999827
3.2360000610352	-1.8798544372729
3.2400000095367	-1.8537962177026
3.2439999580383	-1.8283884190164
3.2479999065399	-1.8036145095209
3.2520000934601	-1.7794601143058
3.2560000419617	-1.7559085280259
3.2599999904633	-1.7329452335555
3.2639999389648	-1.7105550995541
3.2679998874664	-1.6887248827131
3.2720000743866	-1.6674392504480
