#Parameters = {FSS=70; FSSX=1; FSSY=-1; MT=0.018; T=0.13; epsilon=9.488251784; g=-10; gl=15; gw=26; hg=18; hgl=-3; hgnd1up=0; hgw=0.5; hgx1=15; hgy1=10; hsll=1.5; hslw=14.5; n=2; phanup=50; phanx=0; phany=0; pl=26; plusex=0; plusey=0; plusl=6.5; plusw=2.5; plusx=4; plusy=4; pw=23; r=17.35655495771; sl=24; sll=-10; sll1=-16; slot1side=0; slot1up=-1; slot2side=0; slot2up=-8; slw=0.5; slw1=0.5; stripl=19; stripw=1.5; stubl=2; stubw=0.5; stubx=-2.5; stw=0.5; stw1=0; sty=1; sw=30; tand=0.508290081; x=17}
#"Frequency / GHz"	"S1,1 (58) [Magnitude]"
#-----------------------------------------
1.0000000000000	-2.9729429177257
1.0039999485016	-2.9824890174169
1.0080000162125	-2.9934739360712
1.0119999647141	-3.0062685079435
1.0160000324249	-3.0212500295579
1.0199999809265	-3.0387961339843
1.0240000486374	-3.0592909157446
1.0279999971390	-3.0831257192892
1.0319999456406	-3.1106960090770
1.0360000133514	-3.1424116007419
1.0399999618530	-3.1786913355948
1.0440000295639	-3.2199689662086
1.0479999780655	-3.2666934069101
1.0520000457764	-3.3193415388043
1.0559999942780	-3.3784056253113
1.0599999427795	-3.4444133573668
1.0640000104904	-3.5179208443180
1.0679999589920	-3.5995211143890
1.0720000267029	-3.6898522676035
1.0759999752045	-3.7895979805266
1.0800000429153	-3.8994959654223
1.0839999914169	-4.0203451903514
1.0880000591278	-4.1530134282764
1.0920000076294	-4.2984401711039
1.0959999561310	-4.4576566226177
1.1000000238419	-4.6317830937357
1.1039999723434	-4.8220481532049
1.1080000400543	-5.0298002727579
1.1119999885559	-5.2565184407118
1.1160000562668	-5.5038302169638
1.1200000047684	-5.7735222866733
1.1239999532700	-6.0675688542429
1.1280000209808	-6.3881368600334
1.1319999694824	-6.7376125687017
1.1360000371933	-7.1186070228783
1.1399999856949	-7.5339701172232
1.1440000534058	-7.9867661150603
1.1480000019073	-8.4802384851154
1.1519999504089	-9.0176936627274
1.1560000181198	-9.6022830287346
1.1599999666214	-10.236565968639
1.1640000343323	-10.921716709233
1.1679999828339	-11.656071755430
1.1720000505447	-12.432604606378
1.1759999990463	-13.234745394814
1.1799999475479	-14.030168606881
1.1840000152588	-14.763620580323
1.1879999637604	-15.353961303224
1.1920000314713	-15.706315949976
1.1959999799728	-15.747071219256
1.2000000476837	-15.464350526859
1.2039999961853	-14.915487986401
1.2079999446869	-14.193204590171
1.2120000123978	-13.385307000012
1.2159999608994	-12.555351377088
1.2200000286102	-11.742152619003
1.2239999771118	-10.966462154698
1.2280000448227	-10.237722026898
1.2319999933243	-9.5589062160744
1.2359999418259	-8.9294907719300
1.2400000095367	-8.3472065498505
1.2439999580383	-7.8089965221371
1.2480000257492	-7.3115464246780
1.2519999742508	-6.8515667757278
1.2560000419617	-6.4259206811224
1.2599999904633	-6.0316918929904
1.2640000581741	-5.6662026943766
1.2680000066757	-5.3270102745689
1.2719999551773	-5.0119013019925
1.2760000228882	-4.7188717733527
1.2799999713898	-4.4461022502853
1.2840000391006	-4.1919510065640
1.2879999876022	-3.9549312061821
1.2920000553131	-3.7336930728377
1.2960000038147	-3.5270150468989
1.2999999523163	-3.3337854822071
1.3040000200272	-3.1529965023516
1.3079999685287	-2.9837287490746
1.3120000362396	-2.8251486592328
1.3159999847412	-2.6764907830073
1.3200000524521	-2.5370624749943
1.3240000009537	-2.4062264834198
1.3279999494553	-2.2834040409666
1.3320000171661	-2.1680635627958
1.3359999656677	-2.0597186667883
1.3400000333786	-1.9579241529217
1.3439999818802	-1.8622711590592
1.3480000495911	-1.7723837649750
1.3519999980927	-1.6879198377298
1.3559999465942	-1.6085621346360
1.3600000143051	-1.5340205367907
1.3639999628067	-1.4640267333472
1.3680000305176	-1.3983350600070
1.3719999790192	-1.3367185578072
1.3760000467300	-1.2789678592945
1.3799999952316	-1.2248904401556
1.3839999437332	-1.1743090611410
1.3880000114441	-1.1270589592766
1.3919999599457	-1.0829877215688
1.3960000276566	-1.0419545560170
1.3999999761581	-1.0038306350095
1.4040000438690	-0.96849450355043
1.4079999923706	-0.93583401506359
1.4119999408722	-0.90574567631394
1.4160000085831	-0.87813243930183
1.4199999570847	-0.85290371952104
1.4240000247955	-0.82997498220485
1.4279999732971	-0.80926803445982
1.4320000410080	-0.79070654900229
1.4359999895096	-0.77422288359012
1.4400000572205	-0.75974883443482
1.4440000057220	-0.74722266617414
1.4479999542236	-0.73658344498343
1.4520000219345	-0.72777392691101
1.4559999704361	-0.72073855813726
1.4600000381470	-0.71542417823352
1.4639999866486	-0.71177832194658
1.4680000543594	-0.70974958788013
1.4720000028610	-0.70928754014295
1.4759999513626	-0.71034264806724
1.4800000190735	-0.71286463133893
1.4839999675751	-0.71680509174513
1.4880000352859	-0.72211369570892
1.4919999837875	-0.72873984178945
1.4960000514984	-0.73663309226433
1.5000000000000	-0.74574290213931
1.5039999485016	-0.75601563837047
1.5080000162125	-0.76739925817156
1.5119999647141	-0.77983884286434
1.5160000324249	-0.79328034509744
1.5199999809265	-0.80766647387261
1.5240000486374	-0.82294120528614
1.5279999971390	-0.83904478560527
1.5319999456406	-0.85592138907937
1.5360000133514	-0.87350949313120
1.5399999618530	-0.89175112617646
1.5440000295639	-0.91058511238342
1.5479999780655	-0.92995026423322
1.5520000457764	-0.94978836494109
1.5559999942780	-0.97003938358884
1.5599999427795	-0.99064518295962
1.5640000104904	-1.0115476207990
1.5679999589920	-1.0326909576893
1.5720000267029	-1.0540205865731
1.5759999752045	-1.0754838265611
1.5800000429153	-1.0970317929313
1.5839999914169	-1.1186166925601
1.5880000591278	-1.1401937041274
1.5920000076294	-1.1617238413366
1.5959999561310	-1.1831684483748
1.6000000238419	-1.2044937810536
1.6039999723434	-1.2256719588156
1.6080000400543	-1.2466763078988
1.6119999885559	-1.2674866978250
1.6160000562668	-1.2880865834514
1.6200000047684	-1.3084633013065
1.6239999532700	-1.3286108694783
1.6280000209808	-1.3485243121499
1.6319999694824	-1.3682058381270
1.6360000371933	-1.3876616785237
1.6399999856949	-1.4069006764827
1.6440000534058	-1.4259370310806
1.6480000019073	-1.4447881159672
1.6519999504089	-1.4634749263871
1.6560000181198	-1.4820232389335
1.6599999666214	-1.5004589507179
1.6640000343323	-1.5188126961955
1.6679999828339	-1.5371170130730
1.6720000505447	-1.5554079162261
1.6759999990463	-1.5737206408705
1.6799999475479	-1.5920940752950
1.6840000152588	-1.6105691202869
1.6879999637604	-1.6291844619600
1.6920000314713	-1.6479824316842
1.6959999799728	-1.6670054308057
1.7000000476837	-1.6862928521007
1.7039999961853	-1.7058896937425
1.7079999446869	-1.7258344607833
1.7120000123978	-1.7461688151303
1.7159999608994	-1.7669337348354
1.7200000286102	-1.7881670943414
1.7239999771118	-1.8099058032365
1.7280000448227	-1.8321867854014
1.7319999933243	-1.8550442441793
1.7359999418259	-1.8785120176602
1.7400000095367	-1.9026186978618
1.7439999580383	-1.9273955359821
1.7480000257492	-1.9528678368159
1.7519999742508	-1.9790600965053
1.7560000419617	-2.0059947055661
1.7599999904633	-2.0336919183173
1.7640000581741	-2.0621680349600
1.7680000066757	-2.0914372277477
1.7719999551773	-2.1215107867564
1.7760000228882	-2.1524008852388
1.7799999713898	-2.1841107938152
1.7840000391006	-2.2166460999082
1.7879999876022	-2.2500084771553
1.7920000553131	-2.2841952497766
1.7960000038147	-2.3192027039682
1.7999999523163	-2.3550247297057
1.8040000200272	-2.3916510467730
1.8079999685287	-2.4290713837732
1.8120000362396	-2.4672704790081
1.8159999847412	-2.5062328323683
1.8200000524521	-2.5459404026478
1.8240000009537	-2.5863714850998
1.8279999494553	-2.6275045247996
1.8320000171661	-2.6693173699121
1.8359999656677	-2.7117814502266
1.8400000333786	-2.7548735235035
1.8439999818802	-2.7985637500942
1.8480000495911	-2.8428242014468
1.8519999980927	-2.8876265057302
1.8559999465942	-2.9329389836309
1.8600000143051	-2.9787331486558
1.8639999628067	-3.0249793927518
1.8680000305176	-3.0716479224093
1.8719999790192	-3.1187108327398
1.8760000467300	-3.1661377469542
1.8799999952316	-3.2139035010870
1.8839999437332	-3.2619812097073
1.8880000114441	-3.3103472321167
1.8919999599457	-3.3589779310135
1.8960000276566	-3.4078509177809
1.8999999761581	-3.4569497881831
1.9040000438690	-3.5062548888681
1.9079999923706	-3.5557518024906
1.9119999408722	-3.6054293576141
1.9160000085831	-3.6552749510325
1.9199999570847	-3.7052805145120
1.9240000247955	-3.7554427356131
1.9279999732971	-3.8057559325563
1.9320000410080	-3.8562196446988
1.9359999895096	-3.9068349800763
1.9400000572205	-3.9576063593907
1.9440000057220	-4.0085385597770
1.9479999542236	-4.0596390637278
1.9520000219345	-4.1109155114830
1.9559999704361	-4.1623810485691
1.9600000381470	-4.2140469843540
1.9639999866486	-4.2659253974098
1.9680000543594	-4.3180318953576
1.9720000028610	-4.3703793741837
1.9759999513626	-4.4229862753914
1.9800000190735	-4.4758649240678
1.9839999675751	-4.5290321647519
1.9880000352859	-4.5825038885005
1.9919999837875	-4.6362931708913
1.9960000514984	-4.6904146222492
2.0000000000000	-4.7448793497730
2.0039999485016	-4.7996999744237
2.0079998970032	-4.8548839405808
2.0120000839233	-4.9104407781882
2.0160000324249	-4.9663740644746
2.0199999809265	-5.0226864265307
2.0239999294281	-5.0793798192295
2.0280001163483	-5.1364505680274
2.0320000648499	-5.1938934605140
2.0360000133514	-5.2516979971393
2.0399999618530	-5.3098568900310
2.0439999103546	-5.3683493507275
2.0480000972748	-5.4271608405907
2.0520000457764	-5.4862673011119
2.0559999942780	-5.5456430377181
2.0599999427795	-5.6052584749583
2.0639998912811	-5.6650818470063
2.0680000782013	-5.7250762398199
2.0720000267029	-5.7852014623383
2.0759999752045	-5.8454147589160
2.0799999237061	-5.9056723753742
2.0840001106262	-5.9659220656810
2.0880000591278	-6.0261147016725
2.0920000076294	-6.0861949992934
2.0959999561310	-6.1461104502283
2.0999999046326	-6.2057989678824
2.1040000915527	-6.2652046149084
2.1080000400543	-6.3242658216265
2.1119999885559	-6.3829226501007
2.1159999370575	-6.4411144741693
2.1199998855591	-6.4987820937338
2.1240000724792	-6.5558632711735
2.1280000209808	-6.6123001272951
2.1319999694824	-6.6680374947721
2.1359999179840	-6.7230183867239
2.1400001049042	-6.7771936724714
2.1440000534058	-6.8305124093590
2.1480000019073	-6.8829288058625
2.1519999504089	-6.9344000743554
2.1559998989105	-6.9848915593015
2.1600000858307	-7.0343676171168
2.1640000343323	-7.0827991184284
2.1679999828339	-7.1301650456286
2.1719999313354	-7.1764472293473
2.1760001182556	-7.2216300822864
2.1800000667572	-7.2657083946189
2.1840000152588	-7.3086793787584
2.1879999637604	-7.3505488710919
2.1919999122620	-7.3913210394725
2.1960000991821	-7.4310147823731
2.2000000476837	-7.4696470101500
2.2039999961853	-7.5072422367728
2.2079999446869	-7.5438290408956
2.2119998931885	-7.5794417459632
2.2160000801086	-7.6141152252447
2.2200000286102	-7.6478941791410
2.2239999771118	-7.6808194028733
2.2279999256134	-7.7129406728326
2.2320001125336	-7.7443066060722
2.2360000610352	-7.7749707534820
2.2400000095367	-7.8049849628325
2.2439999580383	-7.8344071558378
2.2479999065399	-7.8632949355630
2.2520000934601	-7.8917006814575
2.2560000419617	-7.9196852586328
2.2599999904633	-7.9473073750246
2.2639999389648	-7.9746227654950
2.2679998874664	-8.0016880872910
2.2720000743866	-8.0285605905157
2.2760000228882	-8.0552923347829
2.2799999713898	-8.0819404120188
2.2839999198914	-8.1085537306458
2.2880001068115	-8.1351841175608
2.2920000553131	-8.1618794563566
2.2960000038147	-8.1886872388026
2.2999999523163	-8.2156524146966
2.3039999008179	-8.2428157270376
2.3080000877380	-8.2702167811973
2.3120000362396	-8.2978978885951
2.3159999847412	-8.3258911604458
2.3199999332428	-8.3542338556787
2.3239998817444	-8.3829558110096
2.3280000686646	-8.4120891018098
2.3320000171661	-8.4416609038648
2.3359999656677	-8.4716979351431
2.3399999141693	-8.5022248645730
2.3440001010895	-8.5332656592453
2.3480000495911	-8.5648427298008
2.3519999980927	-8.5969766092446
2.3559999465942	-8.6296863676039
2.3599998950958	-8.6629927712538
2.3640000820160	-8.6969123825238
2.3680000305176	-8.7314647466503
2.3719999790192	-8.7666655977029
2.3759999275208	-8.8025342784896
2.3800001144409	-8.8390875063846
2.3840000629425	-8.8763421709130
2.3880000114441	-8.9143174925927
2.3919999599457	-8.9530327447247
2.3959999084473	-8.9925075513534
2.4000000953674	-9.0327610104879
2.4040000438690	-9.0738185194237
2.4079999923706	-9.1157014703647
2.4119999408722	-9.1584351700306
2.4159998893738	-9.2020477291404
2.4200000762939	-9.2465668390229
2.4240000247955	-9.2920232750552
2.4279999732971	-9.3384508020404
2.4319999217987	-9.3858855511111
2.4360001087189	-9.4343629937571
2.4400000572205	-9.4839247628987
2.4440000057220	-9.5346164572471
2.4479999542236	-9.5864834475692
2.4519999027252	-9.6395653440682
2.4560000896454	-9.6939256769178
2.4600000381470	-9.7496182891704
2.4639999866486	-9.8066954234359
2.4679999351501	-9.8652223627629
2.4719998836517	-9.9252587737734
2.4760000705719	-9.9868761995501
2.4800000190735	-10.050142846648
2.4839999675751	-10.115141313829
2.4879999160767	-10.181940570631
2.4920001029968	-10.250625135554
2.4960000514984	-10.321279876351
2.5000000000000	-10.393998538130
2.5039999485016	-10.468865299166
2.5079998970032	-10.545984102909
2.5120000839233	-10.625452656358
2.5160000324249	-10.707371447780
2.5199999809265	-10.791858986649
2.5239999294281	-10.879020855693
2.5280001163483	-10.968983032060
2.5320000648499	-11.061860938194
2.5360000133514	-11.157787401674
2.5399999618530	-11.256895629045
2.5439999103546	-11.359320152271
2.5480000972748	-11.465213793935
2.5520000457764	-11.574722893452
2.5559999942780	-11.688008486546
2.5599999427795	-11.805236264443
2.5639998912811	-11.926577866273
2.5680000782013	-12.052217167979
2.5720000267029	-12.182344906825
2.5759999752045	-12.317163653203
2.5799999237061	-12.456878953459
2.5840001106262	-12.601721589843
2.5880000591278	-12.751923257654
2.5920000076294	-12.907733344548
2.5959999561310	-13.069415269387
2.5999999046326	-13.237253247500
2.6040000915527	-13.411541922840
2.6080000400543	-13.592599642461
2.6119999885559	-13.780768714941
2.6159999370575	-13.976408989629
2.6199998855591	-14.179908852991
2.6240000724792	-14.391687249438
2.6280000209808	-14.612191805161
2.6319999694824	-14.841903606823
2.6359999179840	-15.081341186871
2.6400001049042	-15.331067761310
2.6440000534058	-15.591685218866
2.6480000019073	-15.863849420379
2.6519999504089	-16.148264650480
2.6559998989105	-16.445694290696
2.6600000858307	-16.756960933471
2.6640000343323	-17.082943502607
2.6679999828339	-17.424594881065
2.6719999313354	-17.782918408654
2.6760001182556	-18.158974004747
2.6800000667572	-18.553860470766
2.6840000152588	-18.968691786465
2.6879999637604	-19.404552857251
2.6919999122620	-19.862415121201
2.6960000991821	-20.343050493494
2.7000000476837	-20.846829824239
2.7039999961853	-21.373441754262
2.7079999446869	-21.921512393910
2.7119998931885	-22.487950350762
2.7160000801086	-23.067071537123
2.7200000286102	-23.649415192623
2.7239999771118	-24.220236600000
2.7279999256134	-24.758057131089
2.7320001125336	-25.233879396039
2.7360000610352	-25.612438778754
2.7400000095367	-25.856862011202
2.7439999580383	-25.937037988765
2.7479999065399	-25.838788025638
2.7520000934601	-25.569048975749
2.7560000419617	-25.153248491550
2.7599999904633	-24.626974166976
2.7639999389648	-24.026770241703
2.7679998874664	-23.384165202564
2.7720000743866	-22.723264185730
2.7760000228882	-22.061050321483
2.7799999713898	-21.408665480435
2.7839999198914	-20.772981454937
2.7880001068115	-20.157887624599
2.7920000553131	-19.565290892556
2.7960000038147	-18.995823606850
2.7999999523163	-18.449322391561
2.8039999008179	-17.925144291894
2.8080000877380	-17.422376805243
2.8120000362396	-16.939974796663
2.8159999847412	-16.476839970118
2.8199999332428	-16.031878497757
2.8239998817444	-15.604025289706
2.8280000686646	-15.192270894730
2.8320000171661	-14.795663384820
2.8359999656677	-14.413311545345
2.8399999141693	-14.044394762187
2.8440001010895	-13.688147521812
2.8480000495911	-13.343868108784
2.8519999980927	-13.010907143797
2.8559999465942	-12.688666453147
2.8599998950958	-12.376595432025
2.8640000820160	-12.074187716315
2.8680000305176	-11.780973005912
2.8719999790192	-11.496524114215
2.8759999275208	-11.220436918150
2.8800001144409	-10.952346091366
2.8840000629425	-10.691908802164
2.8880000114441	-10.438809567827
2.8919999599457	-10.192753961867
2.8959999084473	-9.9534672781148
2.9000000953674	-9.7206964895811
2.9040000438690	-9.4941995067335
2.9079999923706	-9.2737603986769
2.9119999408722	-9.0591656222792
2.9159998893738	-8.8502209658323
2.9200000762939	-8.6467436292767
2.9240000247955	-8.4485597465671
2.9279999732971	-8.2555064375836
2.9319999217987	-8.0674272034192
2.9360001087189	-7.8841772938763
2.9400000572205	-7.7056163155113
2.9440000057220	-7.5316124312394
2.9479999542236	-7.3620382663425
2.9519999027252	-7.1967747093062
2.9560000896454	-7.0357042690516
2.9600000381470	-6.8787175077848
2.9639999866486	-6.7257079534756
2.9679999351501	-6.5765705378927
2.9719998836517	-6.4312092528630
2.9760000705719	-6.2895273484377
2.9800000190735	-6.1514329794146
2.9839999675751	-6.0168360503816
2.9879999160767	-5.8856486138763
2.9920001029968	-5.7577882210407
2.9960000514984	-5.6331721066732
3.0000000000000	-5.5117201295233
3.0039999485016	-5.3933545133203
3.0079998970032	-5.2779991082876
3.0120000839233	-5.1655807895346
3.0160000324249	-5.0560265006591
3.0199999809265	-4.9492654898672
3.0239999294281	-4.8452289001486
3.0280001163483	-4.7438514437818
3.0320000648499	-4.6450626068362
3.0360000133514	-4.5488025465329
3.0399999618530	-4.4550034879677
3.0439999103546	-4.3636074785515
3.0480000972748	-4.2745521842923
3.0520000457764	-4.1877786054719
3.0559999942780	-4.1032300876772
3.0599999427795	-4.0208482233601
3.0639998912811	-3.9405779183989
3.0680000782013	-3.8623653101329
3.0720000267029	-3.7861579374683
3.0759999752045	-3.7119034060972
3.0799999237061	-3.6395496989735
3.0840001106262	-3.5690507250422
3.0880000591278	-3.5003539158461
3.0920000076294	-3.4334162459793
3.0959999561310	-3.3681889997176
3.0999999046326	-3.3046275339259
3.1040000915527	-3.2426888319041
3.1080000400543	-3.1823297968289
3.1119999885559	-3.1235088645216
3.1159999370575	-3.0661843908055
3.1199998855591	-3.0103196409408
3.1240000724792	-2.9558722640328
3.1280000209808	-2.9028074950895
3.1319999694824	-2.8510875091803
3.1359999179840	-2.8006771656976
3.1400001049042	-2.7515415093222
3.1440000534058	-2.7036480308520
3.1480000019073	-2.6569632286060
3.1519999504089	-2.6114557958988
3.1559998989105	-2.5670939945570
3.1600000858307	-2.5238481881129
3.1640000343323	-2.4816903163097
3.1679999828339	-2.4405901538658
3.1719999313354	-2.4005222104605
3.1760001182556	-2.3614584565603
3.1800000667572	-2.3233728290867
3.1840000152588	-2.2862417067382
3.1879999637604	-2.2500382700375
3.1919999122620	-2.2147410874531
3.1960000991821	-2.1803254574544
3.2000000476837	-2.1467698943759
3.2039999961853	-2.1140525433410
3.2079999446869	-2.0821511579447
3.2119998931885	-2.0510465242866
3.2160000801086	-2.0207182523136
3.2200000286102	-1.9911456872415
3.2239999771118	-1.9623126468816
3.2279999256134	-1.9341983271445
3.2320001125336	-1.9067851324949
3.2360000610352	-1.8800566387504
3.2400000095367	-1.8539949058713
3.2439999580383	-1.8285834177806
3.2479999065399	-1.8038061266021
3.2520000934601	-1.7796485895633
3.2560000419617	-1.7560933871978
3.2599999904633	-1.7331267038109
3.2639999389648	-1.7107334625815
3.2679998874664	-1.6888999788671
3.2720000743866	-1.6676109858222
