#Parameters = {FSS=70; FSSX=1; FSSY=-1; MT=0.018; T=0.13; epsilon=9.602861555; g=-10; gl=15; gw=26; hg=18; hgl=-3; hgnd1up=0; hgw=0.5; hgx1=15; hgy1=10; hsll=1.5; hslw=14.5; n=2; phanup=50; phanx=0; phany=0; pl=26; plusex=0; plusey=0; plusl=6.5; plusw=2.5; plusx=4; plusy=4; pw=23; r=17.35655495771; sl=24; sll=-10; sll1=-16; slot1side=0; slot1up=-1; slot2side=0; slot2up=-8; slw=0.5; slw1=0.5; stripl=19; stripw=1.5; stubl=2; stubw=0.5; stubx=-2.5; stw=0.5; stw1=0; sty=1; sw=30; tand=0.505787138; x=17}
#"Frequency / GHz"	"S1,1 (69) [Magnitude]"
#-----------------------------------------
1.0000000000000	-2.9728950778961
1.0039999485016	-2.9824173546740
1.0080000162125	-2.9933778995907
1.0119999647141	-3.0061503227207
1.0160000324249	-3.0211071960163
1.0199999809265	-3.0386309474363
1.0240000486374	-3.0591055816419
1.0279999971390	-3.0829186948879
1.0319999456406	-3.1104686764426
1.0360000133514	-3.1421663178937
1.0399999618530	-3.1784276507800
1.0440000295639	-3.2196865800400
1.0479999780655	-3.2663966421595
1.0520000457764	-3.3190292421511
1.0559999942780	-3.3780804743449
1.0599999427795	-3.4440767428439
1.0640000104904	-3.5175729619745
1.0679999589920	-3.5991652040185
1.0720000267029	-3.6894887222632
1.0759999752045	-3.7892301132233
1.0800000429153	-3.8991265601644
1.0839999914169	-4.0199760601680
1.0880000591278	-4.1526460892810
1.0920000076294	-4.2980803754645
1.0959999561310	-4.4573060844799
1.1000000238419	-4.6314471069520
1.1039999723434	-4.8217323386847
1.1080000400543	-5.0295087729155
1.1119999885559	-5.2562579139023
1.1160000562668	-5.5036076042277
1.1200000047684	-5.7733462226895
1.1239999532700	-6.0674486798056
1.1280000209808	-6.3880852138906
1.1319999694824	-6.7376417866451
1.1360000371933	-7.1187335818532
1.1399999856949	-7.5342112623416
1.1440000534058	-7.9871445782435
1.1480000019073	-8.4807818560448
1.1519999504089	-9.0184332969928
1.1560000181198	-9.6032578989743
1.1599999666214	-10.237821099165
1.1640000343323	-10.923306965993
1.1679999828339	-11.658054573472
1.1720000505447	-12.435043586356
1.1759999990463	-13.237687140953
1.1799999475479	-14.033620964663
1.1840000152588	-14.767504788926
1.1879999637604	-15.358046846561
1.1920000314713	-15.710212950512
1.1959999799728	-15.750331578751
1.2000000476837	-15.466651960502
1.2039999961853	-14.916757339671
1.2079999446869	-14.193560065575
1.2120000123978	-13.384954370195
1.2159999608994	-12.554489330191
1.2200000286102	-11.740945086933
1.2239999771118	-10.965022383336
1.2280000448227	-10.236137184168
1.2319999933243	-9.5572364425102
1.2359999418259	-8.9277773069748
1.2400000095367	-8.3454723589348
1.2439999580383	-7.8072656106099
1.2480000257492	-7.3098320591826
1.2519999742508	-6.8498815091889
1.2560000419617	-6.4242668478860
1.2599999904633	-6.0300748380336
1.2640000581741	-5.6646235442110
1.2680000066757	-5.3254740325861
1.2719999551773	-5.0104065077974
1.2760000228882	-4.7174189854359
1.2799999713898	-4.4446916939670
1.2840000391006	-4.1905821563720
1.2879999876022	-3.9536033485930
1.2920000553131	-3.7324051602225
1.2960000038147	-3.5257654060323
1.2999999523163	-3.3325744176763
1.3040000200272	-3.1518211228177
1.3079999685287	-2.9825894235120
1.3120000362396	-2.8240423077519
1.3159999847412	-2.6754179064894
1.3200000524521	-2.5360205088248
1.3240000009537	-2.4052158659705
1.3279999494553	-2.2824226067090
1.3320000171661	-2.1671106344775
1.3359999656677	-2.0587936772522
1.3400000333786	-1.9570245204846
1.3439999818802	-1.8613969497339
1.3480000495911	-1.7715347865408
1.3519999980927	-1.6870949640010
1.3559999465942	-1.6077606633814
1.3600000143051	-1.5332403542949
1.3639999628067	-1.4632687565472
1.3680000305176	-1.3975980311209
1.3719999790192	-1.3360011090293
1.3760000467300	-1.2782713080955
1.3799999952316	-1.2242136282543
1.3839999437332	-1.1736510839601
1.3880000114441	-1.1264188981011
1.3919999599457	-1.0823658763597
1.3960000276566	-1.0413513333863
1.3999999761581	-1.0032447474362
1.4040000438690	-0.96792647857233
1.4079999923706	-0.93528321565902
1.4119999408722	-0.90521212255361
1.4160000085831	-0.87761561721045
1.4199999570847	-0.85240426553041
1.4240000247955	-0.82949251633159
1.4279999732971	-0.80880207012690
1.4320000410080	-0.79025851239207
1.4359999895096	-0.77379118135945
1.4400000572205	-0.75933496659340
1.4440000057220	-0.74682589603068
1.4479999542236	-0.73620392990600
1.4520000219345	-0.72741264034576
1.4559999704361	-0.72039487936406
1.4600000381470	-0.71509854023911
1.4639999866486	-0.71147113246454
1.4680000543594	-0.70946077319848
1.4720000028610	-0.70901758635125
1.4759999513626	-0.71009183546806
1.4800000190735	-0.71263447254338
1.4839999675751	-0.71659452968448
1.4880000352859	-0.72192361568205
1.4919999837875	-0.72857079848152
1.4960000514984	-0.73648516331493
1.5000000000000	-0.74561670079663
1.5039999485016	-0.75591118372087
1.5080000162125	-0.76731729406166
1.5119999647141	-0.77977957350708
1.5160000324249	-0.79324341933931
1.5199999809265	-0.80765365187330
1.5240000486374	-0.82295140417798
1.5279999971390	-0.83907921460327
1.5319999456406	-0.85598032423354
1.5360000133514	-0.87359271745977
1.5399999618530	-0.89185939563593
1.5440000295639	-0.91071741755273
1.5479999780655	-0.93010785569430
1.5520000457764	-0.94997116799914
1.5559999942780	-0.97024743310146
1.5599999427795	-0.99087814413589
1.5640000104904	-1.0118064832126
1.5679999589920	-1.0329748475261
1.5720000267029	-1.0543295362613
1.5759999752045	-1.0758176204842
1.5800000429153	-1.0973908600225
1.5839999914169	-1.1190003512264
1.5880000591278	-1.1406022850546
1.5920000076294	-1.1621559074747
1.5959999561310	-1.1836240962481
1.6000000238419	-1.2049734497990
1.6039999723434	-1.2261747140562
1.6080000400543	-1.2472016047663
1.6119999885559	-1.2680342772893
1.6160000562668	-1.2886556807691
1.6200000047684	-1.3090538941314
1.6239999532700	-1.3292220034477
1.6280000209808	-1.3491562559794
1.6319999694824	-1.3688583855545
1.6360000371933	-1.3883333004432
1.6399999856949	-1.4075912700613
1.6440000534058	-1.4266466490895
1.6480000019073	-1.4455162588219
1.6519999504089	-1.4642214583007
1.6560000181198	-1.4827866199587
1.6599999666214	-1.5012396810457
1.6640000343323	-1.5196107085713
1.6679999828339	-1.5379321539689
1.6720000505447	-1.5562385894580
1.6759999990463	-1.5745677583358
1.6799999475479	-1.5929573117834
1.6840000152588	-1.6114476450674
1.6879999637604	-1.6300796780879
1.6920000314713	-1.6488933726419
1.6959999799728	-1.6679306038900
1.7000000476837	-1.6872349579303
1.7039999961853	-1.7068465651269
1.7079999446869	-1.7268066129001
1.7120000123978	-1.7471568475403
1.7159999608994	-1.7679372378327
1.7200000286102	-1.7891859255911
1.7239999771118	-1.8109407309821
1.7280000448227	-1.8332373705188
1.7319999933243	-1.8561107384559
1.7359999418259	-1.8795954207174
1.7400000095367	-1.9037184154674
1.7439999580383	-1.9285108631050
1.7480000257492	-1.9539998923986
1.7519999742508	-1.9802094522547
1.7560000419617	-2.0071605387468
1.7599999904633	-2.0348742852809
1.7640000581741	-2.0633668569831
1.7680000066757	-2.0926529772609
1.7719999551773	-2.1227448423923
1.7760000228882	-2.1536517862499
1.7799999713898	-2.1853782790740
1.7840000391006	-2.2179318279603
1.7879999876022	-2.2513109544603
1.7920000553131	-2.2855145465381
1.7960000038147	-2.3205389336039
1.7999999523163	-2.3563771947318
1.8040000200272	-2.3930187172346
1.8079999685287	-2.4304553057572
1.8120000362396	-2.4686697066698
1.8159999847412	-2.5076472341622
1.8200000524521	-2.5473686254526
1.8240000009537	-2.5878138746880
1.8279999494553	-2.6289614176013
1.8320000171661	-2.6707848928931
1.8359999656677	-2.7132621217904
1.8400000333786	-2.7563638750513
1.8439999818802	-2.8000630596486
1.8480000495911	-2.8443329318057
1.8519999980927	-2.8891411217450
1.8559999465942	-2.9344596530481
1.8600000143051	-2.9802588389896
1.8639999628067	-3.0265091446676
1.8680000305176	-3.0731805966722
1.8719999790192	-3.1202423510334
1.8760000467300	-3.1676688921159
1.8799999952316	-3.2154313065581
1.8839999437332	-3.2635045315612
1.8880000114441	-3.3118640795999
1.8919999599457	-3.3604848886660
1.8960000276566	-3.4093494408326
1.8999999761581	-3.4584358451091
1.9040000438690	-3.5077269401077
1.9079999923706	-3.5572074532747
1.9119999408722	-3.6068658396264
1.9160000085831	-3.6566903342613
1.9199999570847	-3.7066744525578
1.9240000247955	-3.7568108780307
1.9279999732971	-3.8070971026764
1.9320000410080	-3.8575311461517
1.9359999895096	-3.9081154101204
1.9400000572205	-3.9588520685332
1.9440000057220	-4.0097484845216
1.9479999542236	-4.0608093334306
1.9520000219345	-4.1120464237635
1.9559999704361	-4.1634683628800
1.9600000381470	-4.2150891506117
1.9639999866486	-4.2669198354175
1.9680000543594	-4.3189751538003
1.9720000028610	-4.3712708602710
1.9759999513626	-4.4238217893900
1.9800000190735	-4.4766444493427
1.9839999675751	-4.5297528756907
1.9880000352859	-4.5831622732331
1.9919999837875	-4.6368875256372
1.9960000514984	-4.6909425502038
2.0000000000000	-4.7453383924228
2.0039999485016	-4.8000882367061
2.0079998970032	-4.8551997955158
2.0120000839233	-4.9106806094846
2.0160000324249	-4.9665361075176
2.0199999809265	-5.0227685353730
2.0239999294281	-5.0793797665998
2.0280001163483	-5.1363657537636
2.0320000648499	-5.1937215368684
2.0360000133514	-5.2514385188313
2.0399999618530	-5.3095053997874
2.0439999103546	-5.3679063205438
2.0480000972748	-5.4266219782387
2.0520000457764	-5.4856319955537
2.0559999942780	-5.5449068496980
2.0599999427795	-5.6044224415838
2.0639998912811	-5.6641431672224
2.0680000782013	-5.7240323837494
2.0720000267029	-5.7840520417712
2.0759999752045	-5.8441582883084
2.0799999237061	-5.9043055961435
2.0840001106262	-5.9644466679779
2.0880000591278	-6.0245274487713
2.0920000076294	-6.0844973176113
2.0959999561310	-6.1442976607345
2.0999999046326	-6.2038733342455
2.1040000915527	-6.2631655488351
2.1080000400543	-6.3221124586980
2.1119999885559	-6.3806564175870
2.1159999370575	-6.4387346419199
2.1199998855591	-6.4962880296882
2.1240000724792	-6.5532575213120
2.1280000209808	-6.6095846170877
2.1319999694824	-6.6652115484517
2.1359999179840	-6.7200869795764
2.1400001049042	-6.7741552000342
2.1440000534058	-6.8273701853233
2.1480000019073	-6.8796850950743
2.1519999504089	-6.9310593383812
2.1559998989105	-6.9814564134160
2.1600000858307	-7.0308399926326
2.1640000343323	-7.0791852559701
2.1679999828339	-7.1264684195458
2.1719999313354	-7.1726689404627
2.1760001182556	-7.2177789862111
2.1800000667572	-7.2617875760250
2.1840000152588	-7.3046954485947
2.1879999637604	-7.3465021020866
2.1919999122620	-7.3872221646625
2.1960000991821	-7.4268664418867
2.2000000476837	-7.4654553508590
2.2039999961853	-7.5030135660829
2.2079999446869	-7.5395674347494
2.2119998931885	-7.5751553478470
2.2160000801086	-7.6098109196932
2.2200000286102	-7.6435747170016
2.2239999771118	-7.6764940442681
2.2279999256134	-7.7086144655423
2.2320001125336	-7.7399851092910
2.2360000610352	-7.7706594601574
2.2400000095367	-7.8006920957103
2.2439999580383	-7.8301383065242
2.2479999065399	-7.8590530714274
2.2520000934601	-7.8874959146019
2.2560000419617	-7.9155224269269
2.2599999904633	-7.9431909167172
2.2639999389648	-7.9705578483681
2.2679998874664	-7.9976813922725
2.2720000743866	-8.0246162975182
2.2760000228882	-8.0514179954427
2.2799999713898	-8.0781390630302
2.2839999198914	-8.1048318782827
2.2880001068115	-8.1315468251594
2.2920000553131	-8.1583308395849
2.2960000038147	-8.1852320806698
2.2999999523163	-8.2122939031944
2.3039999008179	-8.2395585708092
2.3080000877380	-8.2670666373310
2.3120000362396	-8.2948578446740
2.3159999847412	-8.3229659477396
2.3199999332428	-8.3514270952345
2.3239998817444	-8.3802707966897
2.3280000686646	-8.4095284415264
2.3320000171661	-8.4392298555940
2.3359999656677	-8.4693981979747
2.3399999141693	-8.5000613395244
2.3440001010895	-8.5312400181502
2.3480000495911	-8.5629585874179
2.3519999980927	-8.5952352296218
2.3559999465942	-8.6280939652898
2.3599998950958	-8.6615489055552
2.3640000820160	-8.6956195691242
2.3680000305176	-8.7303259681678
2.3719999790192	-8.7656826220976
2.3759999275208	-8.8017084725194
2.3800001144409	-8.8384213887304
2.3840000629425	-8.8758371798216
2.3880000114441	-8.9139750736982
2.3919999599457	-8.9528539408637
2.3959999084473	-8.9924934162267
2.4000000953674	-9.0329143904397
2.4040000438690	-9.0741386743257
2.4079999923706	-9.1161904049767
2.4119999408722	-9.1590933932950
2.4159998893738	-9.2028741867186
2.4200000762939	-9.2475630280218
2.4240000247955	-9.2931903833456
2.4279999732971	-9.3397873826521
2.4319999217987	-9.3873921074260
2.4360001087189	-9.4360401085069
2.4400000572205	-9.4857748671109
2.4440000057220	-9.5366351991055
2.4479999542236	-9.5886673353607
2.4519999027252	-9.6419244980699
2.4560000896454	-9.6964528427116
2.4600000381470	-9.7523145928677
2.4639999866486	-9.8095576026395
2.4679999351501	-9.8682494806666
2.4719998836517	-9.9284539239918
2.4760000705719	-9.9902380897228
2.4800000190735	-10.053671564622
2.4839999675751	-10.118831782938
2.4879999160767	-10.185791558061
2.4920001029968	-10.254644378221
2.4960000514984	-10.325458697528
2.5000000000000	-10.398334298481
2.5039999485016	-10.473363896294
2.5079998970032	-10.550638318149
2.5120000839233	-10.630267180946
2.5160000324249	-10.712344674544
2.5199999809265	-10.796985620468
2.5239999294281	-10.884304641510
2.5280001163483	-10.974423425065
2.5320000648499	-11.067456056007
2.5360000133514	-11.163532381546
2.5399999618530	-11.262793792339
2.5439999103546	-11.365375450589
2.5480000972748	-11.471419845175
2.5520000457764	-11.581078873995
2.5559999942780	-11.694514815045
2.5599999427795	-11.811893515509
2.5639998912811	-11.933386154376
2.5680000782013	-12.059176743278
2.5720000267029	-12.189453603322
2.5759999752045	-12.324419383042
2.5799999237061	-12.464287368321
2.5840001106262	-12.609279760402
2.5880000591278	-12.759629026473
2.5920000076294	-12.915588175495
2.5959999561310	-13.077419941867
2.5999999046326	-13.245405285486
2.6040000915527	-13.419842205779
2.6080000400543	-13.601049400524
2.6119999885559	-13.789364841602
2.6159999370575	-13.985150732698
2.6199998855591	-14.188796226082
2.6240000724792	-14.400719050910
2.6280000209808	-14.621364444559
2.6319999694824	-14.851216370697
2.6359999179840	-15.090791898008
2.6400001049042	-15.340650065243
2.6440000534058	-15.601396201588
2.6480000019073	-15.873681555238
2.6519999504089	-16.158211899648
2.6559998989105	-16.455742996037
2.6600000858307	-16.767098447010
2.6640000343323	-17.093155359822
2.6679999828339	-17.434858628827
2.6719999313354	-17.793206958990
2.6760001182556	-18.169251804897
2.6800000667572	-18.564082760060
2.6840000152588	-18.978804148201
2.6879999637604	-19.414474293366
2.6919999122620	-19.872058099998
2.6960000991821	-20.352281202855
2.7000000476837	-20.855485789787
2.7039999961853	-21.381309926325
2.7079999446869	-21.928315356319
2.7119998931885	-22.493323659087
2.7160000801086	-23.070558995046
2.7200000286102	-23.650442732282
2.7239999771118	-24.218147155417
2.7279999256134	-24.752112001619
2.7320001125336	-25.223408514184
2.7360000610352	-25.597010975911
2.7400000095367	-25.836511254598
2.7439999580383	-25.912410154142
2.7479999065399	-25.811127598504
2.7520000934601	-25.539902441927
2.7560000419617	-25.124097931428
2.7599999904633	-24.598970647070
2.7639999389648	-24.000664740890
2.7679998874664	-23.360320507293
2.7720000743866	-22.701781668120
2.7760000228882	-22.041858484785
2.7799999713898	-21.391617170640
2.7839999198914	-20.757887681203
2.7880001068115	-20.144551972038
2.7920000553131	-19.553522709055
2.7960000038147	-18.985451383682
2.7999999523163	-18.440186867923
2.8039999008179	-17.917109371292
2.8080000877380	-17.415320772937
2.8120000362396	-16.933791096585
2.8159999847412	-16.471436133954
2.8199999332428	-16.027170860053
2.8239998817444	-15.599944197294
2.8280000686646	-15.188752463466
2.8320000171661	-14.792649511070
2.8359999656677	-14.410756267417
2.8399999141693	-14.042252527122
2.8440001010895	-13.686379774182
2.8480000495911	-13.342439651884
2.8519999980927	-13.009786377470
2.8559999465942	-12.687825224012
2.8599998950958	-12.376008560008
2.8640000820160	-12.073831487416
2.8680000305176	-11.780828032524
2.8719999790192	-11.496568479126
2.8759999275208	-11.220655290078
2.8800001144409	-10.952721928808
2.8840000629425	-10.692427715003
2.8880000114441	-10.439458409787
2.8919999599457	-10.193520588921
2.8959999084473	-9.9543395310799
2.9000000953674	-9.7216634054879
2.9040000438690	-9.4952547228402
2.9079999923706	-9.2748899821219
2.9119999408722	-9.0603646697500
2.9159998893738	-8.8514820221539
2.9200000762939	-8.6480599429745
2.9240000247955	-8.4499222765663
2.9279999732971	-8.2569101953053
2.9319999217987	-8.0688678488018
2.9360001087189	-7.8856487169011
2.9400000572205	-7.7071147942038
2.9440000057220	-7.5331323165372
2.9479999542236	-7.3635761748143
2.9519999027252	-7.1983258813950
2.9560000896454	-7.0372670226675
2.9600000381470	-6.8802873081126
2.9639999866486	-6.7272810552818
2.9679999351501	-6.5781468084865
2.9719998836517	-6.4327842275325
2.9760000705719	-6.2910990334352
2.9800000190735	-6.1529987945743
2.9839999675751	-6.0183948294485
2.9879999160767	-5.8871981202577
2.9920001029968	-5.7593283403553
2.9960000514984	-5.6346991296850
3.0000000000000	-5.5132336342334
3.0039999485016	-5.3948520939844
3.0079998970032	-5.2794825133101
3.0120000839233	-5.1670467042459
3.0160000324249	-5.0574757896907
3.0199999809265	-4.9506973136059
3.0239999294281	-4.8466423392934
3.0280001163483	-4.7452441057202
3.0320000648499	-4.6464373154511
3.0360000133514	-4.5501557267865
3.0399999618530	-4.4563364453571
3.0439999103546	-4.3649200119435
3.0480000972748	-4.2758440625903
3.0520000457764	-4.1890494140981
3.0559999942780	-4.1044791920401
3.0599999427795	-4.0220765388309
3.0639998912811	-3.9417854689564
3.0680000782013	-3.8635515420327
3.0720000267029	-3.7873224329969
3.0759999752045	-3.7130469356217
3.0799999237061	-3.6406732282674
3.0840001106262	-3.5701535426669
3.0880000591278	-3.5014372007634
3.0920000076294	-3.4344782777460
3.0959999561310	-3.3692320377223
3.0999999046326	-3.3056522068759
3.1040000915527	-3.2436936963926
3.1080000400543	-3.1833148672750
3.1119999885559	-3.1244755039526
3.1159999370575	-3.0671333276289
3.1199998855591	-3.0112500808940
3.1240000724792	-2.9567851405991
3.1280000209808	-2.9037026818916
3.1319999694824	-2.8519661566391
3.1359999179840	-2.8015393139854
3.1400001049042	-2.7523877894518
3.1440000534058	-2.7044780875641
3.1480000019073	-2.6577773790442
3.1519999504089	-2.6122542013309
3.1559998989105	-2.5678788612901
3.1600000858307	-2.5246177079700
3.1640000343323	-2.4824455226549
3.1679999828339	-2.4413317525295
3.1719999313354	-2.4012498844702
3.1760001182556	-2.3621730767475
3.1800000667572	-2.3240746684589
3.1840000152588	-2.2869302592518
3.1879999637604	-2.2507151422025
3.1919999122620	-2.2154046391966
3.1960000991821	-2.1809780271878
3.2000000476837	-2.1474109104948
3.2039999961853	-2.1146816095583
3.2079999446869	-2.0827690686878
3.2119998931885	-2.0516537249437
3.2160000801086	-2.0213144784283
3.2200000286102	-1.9917323803499
3.2239999771118	-1.9628888072382
3.2279999256134	-1.9347640038165
3.2320001125336	-1.9073416072437
3.2360000610352	-1.8806028521846
3.2400000095367	-1.8545312221045
3.2439999580383	-1.8291105591045
3.2479999065399	-1.8043246785925
3.2520000934601	-1.7801567080859
3.2560000419617	-1.7565928171420
3.2599999904633	-1.7336167323678
3.2639999389648	-1.7112150130576
3.2679998874664	-1.6893722190113
3.2720000743866	-1.6680743648148
