#Parameters = {FSS=70; FSSX=1; FSSY=-1; MT=0.018; T=0.13; epsilon=9.654792744; g=-10; gl=15; gw=26; hg=18; hgl=-3; hgnd1up=0; hgw=0.5; hgx1=15; hgy1=10; hsll=1.5; hslw=14.5; n=2; phanup=50; phanx=0; phany=0; pl=26; plusex=0; plusey=0; plusl=6.5; plusw=2.5; plusx=4; plusy=4; pw=23; r=17.35655495771; sl=24; sll=-10; sll1=-16; slot1side=0; slot1up=-1; slot2side=0; slot2up=-8; slw=0.5; slw1=0.5; stripl=19; stripw=1.5; stubl=2; stubw=0.5; stubx=-2.5; stw=0.5; stw1=0; sty=1; sw=30; tand=0.504656713; x=17}
#"Frequency / GHz"	"S1,1 (74) [Magnitude]"
#-----------------------------------------
1.0000000000000	-2.9728741991942
1.0039999485016	-2.9823861715138
1.0080000162125	-2.9933354202191
1.0119999647141	-3.0060975388183
1.0160000324249	-3.0210438541458
1.0199999809265	-3.0385575560368
1.0240000486374	-3.0590207974783
1.0279999971390	-3.0828247893769
1.0319999456406	-3.1103664495704
1.0360000133514	-3.1420542744784
1.0399999618530	-3.1783067054053
1.0440000295639	-3.2195583589061
1.0479999780655	-3.2662614290081
1.0520000457764	-3.3188877219626
1.0559999942780	-3.3779329898418
1.0599999427795	-3.4439230059248
1.0640000104904	-3.5174143874874
1.0679999589920	-3.5990029839567
1.0720000267029	-3.6893248597587
1.0759999752045	-3.7890632543377
1.0800000429153	-3.8989585412774
1.0839999914169	-4.0198090542999
1.0880000591278	-4.1524807367841
1.0920000076294	-4.2979176822670
1.0959999561310	-4.4571492332565
1.1000000238419	-4.6312957258610
1.1039999723434	-4.8215896546241
1.1080000400543	-5.0293784489503
1.1119999885559	-5.2561423031977
1.1160000562668	-5.5035100615390
1.1200000047684	-5.7732700023418
1.1239999532700	-6.0673985899845
1.1280000209808	-6.3880670303224
1.1319999694824	-6.7376611999108
1.1360000371933	-7.1187989044962
1.1399999856949	-7.5343312454886
1.1440000534058	-7.9873297356861
1.1480000019073	-8.4810430563519
1.1519999504089	-9.0187884265307
1.1560000181198	-9.6037232199277
1.1599999666214	-10.238420148545
1.1640000343323	-10.924064579185
1.1679999828339	-11.659001009520
1.1720000505447	-12.436209751127
1.1759999990463	-13.239099380552
1.1799999475479	-14.035286872988
1.1840000152588	-14.769388671573
1.1879999637604	-15.360047307329
1.1920000314713	-15.712144059912
1.1959999799728	-15.751980205713
1.2000000476837	-15.467861252967
1.2039999961853	-14.917481602421
1.2079999446869	-14.193851822224
1.2120000123978	-13.384905614637
1.2159999608994	-12.554193714024
1.2200000286102	-11.740477529957
1.2239999771118	-10.964434508556
1.2280000448227	-10.235476865352
1.2319999933243	-9.5565287849853
1.2359999418259	-8.9270434708162
1.2400000095367	-8.3447274080661
1.2439999580383	-7.8065194046801
1.2480000257492	-7.3090888566166
1.2519999742508	-6.8491447171688
1.2560000419617	-6.4235419564136
1.2599999904633	-6.0293668413286
1.2640000581741	-5.6639315118993
1.2680000066757	-5.3247967233948
1.2719999551773	-5.0097490905033
1.2760000228882	-4.7167781102062
1.2799999713898	-4.4440702680637
1.2840000391006	-4.1899783718974
1.2879999876022	-3.9530172057486
1.2920000553131	-3.7318363739660
1.2960000038147	-3.5252131155294
1.2999999523163	-3.3320382557549
1.3040000200272	-3.1513013167773
1.3079999685287	-2.9820848653673
1.3120000362396	-2.8235523503586
1.3159999847412	-2.6749422498119
1.3200000524521	-2.5355592591786
1.3240000009537	-2.4047679961746
1.3279999494553	-2.2819887152989
1.3320000171661	-2.1666888476797
1.3359999656677	-2.0583828008666
1.3400000333786	-1.9566258572366
1.3439999818802	-1.8610100823949
1.3480000495911	-1.7711589357815
1.3519999980927	-1.6867297109824
1.3559999465942	-1.6074048656117
1.3600000143051	-1.5328948563956
1.3639999628067	-1.4629325052593
1.3680000305176	-1.3972708135786
1.3719999790192	-1.3356837420065
1.3760000467300	-1.2779625626967
1.3799999952316	-1.2239124484015
1.3839999437332	-1.1733587958770
1.3880000114441	-1.1261350967991
1.3919999599457	-1.0820902222788
1.3960000276566	-1.0410834296322
1.3999999761581	-1.0029848718108
1.4040000438690	-0.96767429648286
1.4079999923706	-0.93503904180029
1.4119999408722	-0.90497512788184
1.4160000085831	-0.87738611342264
1.4199999570847	-0.85218264560477
1.4240000247955	-0.82927794292558
1.4279999732971	-0.80859505437540
1.4320000410080	-0.79005873129357
1.4359999895096	-0.77359972074283
1.4400000572205	-0.75915105941788
1.4440000057220	-0.74664940287472
1.4479999542236	-0.73603538528527
1.4520000219345	-0.72725196149677
1.4559999704361	-0.72024239105520
1.4600000381470	-0.71495386397592
1.4639999866486	-0.71133454403853
1.4680000543594	-0.70933312840699
1.4720000028610	-0.70889790024835
1.4759999513626	-0.70998097326860
1.4800000190735	-0.71253223317557
1.4839999675751	-0.71650127094119
1.4880000352859	-0.72183909475275
1.4919999837875	-0.72849534560626
1.4960000514984	-0.73642043128969
1.5000000000000	-0.74556062687695
1.5039999485016	-0.75586543526843
1.5080000162125	-0.76728186401554
1.5119999647141	-0.77975369966671
1.5160000324249	-0.79322814551530
1.5199999809265	-0.80764875071177
1.5240000486374	-0.82295764038499
1.5279999971390	-0.83909647419852
1.5319999456406	-0.85600819442828
1.5360000133514	-0.87363209537127
1.5399999618530	-0.89190938375167
1.5440000295639	-0.91077830737792
1.5479999780655	-0.93018050061040
1.5520000457764	-0.95005532110370
1.5559999942780	-0.97034377794751
1.5599999427795	-0.99098549577682
1.5640000104904	-1.0119249214284
1.5679999589920	-1.0331044997040
1.5720000267029	-1.0544708001103
1.5759999752045	-1.0759707703694
1.5800000429153	-1.0975548862498
1.5839999914169	-1.1191761828021
1.5880000591278	-1.1407888546986
1.5920000076294	-1.1623539064880
1.5959999561310	-1.1838333582993
1.6000000238419	-1.2051933138910
1.6039999723434	-1.2264046090961
1.6080000400543	-1.2474426271697
1.6119999885559	-1.2682849553747
1.6160000562668	-1.2889164083152
1.6200000047684	-1.3093250298764
1.6239999532700	-1.3295024393666
1.6280000209808	-1.3494461781633
1.6319999694824	-1.3691569405811
1.6360000371933	-1.3886409004582
1.6399999856949	-1.4079088653614
1.6440000534058	-1.4269719849529
1.6480000019073	-1.4458501100210
1.6519999504089	-1.4645639802233
1.6560000181198	-1.4831367863829
1.6599999666214	-1.5015978746695
1.6640000343323	-1.5199764810196
1.6679999828339	-1.5383055937618
1.6720000505447	-1.5566196643836
1.6759999990463	-1.5749564516658
1.6799999475479	-1.5933527491475
1.6840000152588	-1.6118507751396
1.6879999637604	-1.6304892180843
1.6920000314713	-1.6493095831496
1.6959999799728	-1.6683556444984
1.7000000476837	-1.6876658055067
1.7039999961853	-1.7072848334905
1.7079999446869	-1.7272525820544
1.7120000123978	-1.7476099413580
1.7159999608994	-1.7683965860391
1.7200000286102	-1.7896525726734
1.7239999771118	-1.8114144710952
1.7280000448227	-1.8337181975403
1.7319999933243	-1.8565993597943
1.7359999418259	-1.8800900230830
1.7400000095367	-1.9042207678656
1.7439999580383	-1.9290211437816
1.7480000257492	-1.9545173665279
1.7519999742508	-1.9807343281708
1.7560000419617	-2.0076937149206
1.7599999904633	-2.0354141478626
1.7640000581741	-2.0639150677206
1.7680000066757	-2.0932084698986
1.7719999551773	-2.1233082333924
1.7760000228882	-2.1542225370344
1.7799999713898	-2.1859582691511
1.7840000391006	-2.2185182341790
1.7879999876022	-2.2519051190600
1.7920000553131	-2.2861166360153
1.7960000038147	-2.3211483317096
1.7999999523163	-2.3569942038635
1.8040000200272	-2.3936450391578
1.8079999685287	-2.4310872239952
1.8120000362396	-2.4693091302543
1.8159999847412	-2.5082928314042
1.8200000524521	-2.5480219502742
1.8240000009537	-2.5884731862170
1.8279999494553	-2.6296250692577
1.8320000171661	-2.6714555792230
1.8359999656677	-2.7139371006134
1.8400000333786	-2.7570445974915
1.8439999818802	-2.8007481901736
1.8480000495911	-2.8450215896083
1.8519999980927	-2.8898332934758
1.8559999465942	-2.9351556406224
1.8600000143051	-2.9809571609057
1.8639999628067	-3.0272079183061
1.8680000305176	-3.0738795714052
1.8719999790192	-3.1209424923858
1.8760000467300	-3.1683682453786
1.8799999952316	-3.2161292668991
1.8839999437332	-3.2642009643989
1.8880000114441	-3.3125570172384
1.8919999599457	-3.3611751570391
1.8960000276566	-3.4100343174217
1.8999999761581	-3.4591149245096
1.9040000438690	-3.5083999926345
1.9079999923706	-3.5578736872248
1.9119999408722	-3.6075233093263
1.9160000085831	-3.6573390204758
1.9199999570847	-3.7073120219698
1.9240000247955	-3.7574360161362
1.9279999732971	-3.8077108618473
1.9320000410080	-3.8581319999806
1.9359999895096	-3.9087010637324
1.9400000572205	-3.9594237770994
1.9440000057220	-4.0103023432678
1.9479999542236	-4.0613464698417
1.9520000219345	-4.1125639880177
1.9559999704361	-4.1639661901731
1.9600000381470	-4.2155646760127
1.9639999866486	-4.2673743270888
1.9680000543594	-4.3194072038644
1.9720000028610	-4.3716790403784
1.9759999513626	-4.4242052101204
1.9800000190735	-4.4770009947919
1.9839999675751	-4.5300819145296
1.9880000352859	-4.5834637972085
1.9919999837875	-4.6371596264152
1.9960000514984	-4.6911839018507
2.0000000000000	-4.7455495400345
2.0039999485016	-4.8002671747083
2.0079998970032	-4.8553447964958
2.0120000839233	-4.9107905515115
2.0160000324249	-4.9666114389889
2.0199999809265	-5.0228067842121
2.0239999294281	-5.0793810170954
2.0280001163483	-5.1363291031163
2.0320000648499	-5.1936446966630
2.0360000133514	-5.2513225233757
2.0399999618530	-5.3093472506759
2.0439999103546	-5.3677053066138
2.0480000972748	-5.4263780397968
2.0520000457764	-5.4853427006038
2.0559999942780	-5.5445752061918
2.0599999427795	-5.6040442270826
2.0639998912811	-5.6637179313299
2.0680000782013	-5.7235600059875
2.0720000267029	-5.7835316912111
2.0759999752045	-5.8435898532092
2.0799999237061	-5.9036885948114
2.0840001106262	-5.9637785089706
2.0880000591278	-6.0238108872540
2.0920000076294	-6.0837290351127
2.0959999561310	-6.1434797170028
2.0999999046326	-6.2030038800256
2.1040000915527	-6.2622434349754
2.1080000400543	-6.3211403023481
2.1119999885559	-6.3796324001289
2.1159999370575	-6.4376600009547
2.1199998855591	-6.4951644427477
2.1240000724792	-6.5520824838059
2.1280000209808	-6.6083603103757
2.1319999694824	-6.6639382840032
2.1359999179840	-6.7187643289769
2.1400001049042	-6.7727859758229
2.1440000534058	-6.8259548894248
2.1480000019073	-6.8782246999856
2.1519999504089	-6.9295548905134
2.1559998989105	-6.9799086101594
2.1600000858307	-7.0292524619221
2.1640000343323	-7.0775567803109
2.1679999828339	-7.1248040649311
2.1719999313354	-7.1709705455024
2.1760001182556	-7.2160458768252
2.1800000667572	-7.2600229202425
2.1840000152588	-7.3029008405634
2.1879999637604	-7.3446821632950
2.1919999122620	-7.3853768214131
2.1960000991821	-7.4249999246009
2.2000000476837	-7.4635686329902
2.2039999961853	-7.5011100692452
2.2079999446869	-7.5376511853344
2.2119998931885	-7.5732258798257
2.2160000801086	-7.6078732289023
2.2200000286102	-7.6416323705078
2.2239999771118	-7.6745475533096
2.2279999256134	-7.7066669327130
2.2320001125336	-7.7380411099043
2.2360000610352	-7.7687208583830
2.2400000095367	-7.7987615825483
2.2439999580383	-7.8282175406869
2.2479999065399	-7.8571457383147
2.2520000934601	-7.8856046054118
2.2560000419617	-7.9136479658044
2.2599999904633	-7.9413373193612
2.2639999389648	-7.9687296248815
2.2679998874664	-7.9958785370265
2.2720000743866	-8.0228420283083
2.2760000228882	-8.0496743853173
2.2799999713898	-8.0764277459986
2.2839999198914	-8.1031571749995
2.2880001068115	-8.1299087576085
2.2920000553131	-8.1567323577414
2.2960000038147	-8.1836757920696
2.2999999523163	-8.2107812307236
2.3039999008179	-8.2380920822188
2.3080000877380	-8.2656491601780
2.3120000362396	-8.2934899375376
2.3159999847412	-8.3216500621756
2.3199999332428	-8.3501627868658
2.3239998817444	-8.3790613524045
2.3280000686646	-8.4083770870078
2.3320000171661	-8.4381358138840
2.3359999656677	-8.4683660038726
2.3399999141693	-8.4990882960938
2.3440001010895	-8.5303300852792
2.3480000495911	-8.5621130625970
2.3519999980927	-8.5944555233311
2.3559999465942	-8.6273793970827
2.3599998950958	-8.6609015520829
2.3640000820160	-8.6950421222818
2.3680000305176	-8.7298171278966
2.3719999790192	-8.7652446851011
2.3759999275208	-8.8013424521084
2.3800001144409	-8.8381265813978
2.3840000629425	-8.8756161155605
2.3880000114441	-8.9138279275222
2.3919999599457	-8.9527822088931
2.3959999084473	-8.9924962577545
2.4000000953674	-9.0329921902185
2.4040000438690	-9.0742940070244
2.4079999923706	-9.1164204228392
2.4119999408722	-9.1594003192407
2.4159998893738	-9.2032588583576
2.4200000762939	-9.2480247534746
2.4240000247955	-9.2937299079732
2.4279999732971	-9.3404048034394
2.4319999217987	-9.3880859189622
2.4360001087189	-9.4368117208384
2.4400000572205	-9.4866247487152
2.4440000057220	-9.5375599891421
2.4479999542236	-9.5896722042444
2.4519999027252	-9.6430026997842
2.4560000896454	-9.6976094623519
2.4600000381470	-9.7535445969625
2.4639999866486	-9.8108688750185
2.4679999351501	-9.8696322041087
2.4719998836517	-9.9299139489492
2.4760000705719	-9.9917722928925
2.4800000190735	-10.055285366131
2.4839999675751	-10.120514644928
2.4879999160767	-10.187549894157
2.4920001029968	-10.256474182289
2.4960000514984	-10.327361252435
2.5000000000000	-10.400309011688
2.5039999485016	-10.475410011176
2.5079998970032	-10.552758240968
2.5120000839233	-10.632453725248
2.5160000324249	-10.714604128251
2.5199999809265	-10.799314668526
2.5239999294281	-10.886704819102
2.5280001163483	-10.976887889775
2.5320000648499	-11.069990016572
2.5360000133514	-11.166142945533
2.5399999618530	-11.265473006019
2.5439999103546	-11.368119560497
2.5480000972748	-11.474230505051
2.5520000457764	-11.583958680532
2.5559999942780	-11.697463259558
2.5599999427795	-11.814908485670
2.5639998912811	-11.936469437786
2.5680000782013	-12.062324427601
2.5720000267029	-12.192669164478
2.5759999752045	-12.327702337130
2.5799999237061	-12.467636118475
2.5840001106262	-12.612694652787
2.5880000591278	-12.763111660020
2.5920000076294	-12.919137054266
2.5959999561310	-13.081035154642
2.5999999046326	-13.249085711258
2.6040000915527	-13.423588327648
2.6080000400543	-13.604861337628
2.6119999885559	-13.793242207369
2.6159999370575	-13.989093091497
2.6199998855591	-14.192804408115
2.6240000724792	-14.404790992161
2.6280000209808	-14.625500689470
2.6319999694824	-14.855413827523
2.6359999179840	-15.095049880343
2.6400001049042	-15.344967675705
2.6440000534058	-15.605771071446
2.6480000019073	-15.878110042009
2.6519999504089	-16.162690331005
2.6559998989105	-16.460268421131
2.6600000858307	-16.771664571602
2.6640000343323	-17.097754091265
2.6679999828339	-17.439480644987
2.6719999313354	-17.797839021974
2.6760001182556	-18.173880832941
2.6800000667572	-18.568687206748
2.6840000152588	-18.983357165036
2.6879999637604	-19.418945549461
2.6919999122620	-19.876400031590
2.6960000991821	-20.356443618985
2.7000000476837	-20.859387458377
2.7039999961853	-21.384857890152
2.7079999446869	-21.931384607852
2.7119998931885	-22.495752016827
2.7160000801086	-23.072137721009
2.7200000286102	-23.650927371317
2.7239999771118	-24.217222578922
2.7279999256134	-24.749467880769
2.7320001125336	-25.218736462238
2.7360000610352	-25.590118830957
2.7400000095367	-25.827413794462
2.7439999580383	-25.901396014335
2.7479999065399	-25.798766060945
2.7520000934601	-25.526869576243
2.7560000419617	-25.111064610177
2.7599999904633	-24.586445148424
2.7639999389648	-23.988977445717
2.7679998874664	-23.349634053771
2.7720000743866	-22.692142789409
2.7760000228882	-22.033245898716
2.7799999713898	-21.383961449484
2.7839999198914	-20.751102124181
2.7880001068115	-20.138550709995
2.7920000553131	-19.548224572932
2.7960000038147	-18.980776358573
2.7999999523163	-18.436067181986
2.8039999008179	-17.913481775439
2.8080000877380	-17.412133190017
2.8120000362396	-16.930994994842
2.8159999847412	-16.468989459196
2.8199999332428	-16.025038302228
2.8239998817444	-15.598092360104
2.8280000686646	-15.187153727779
2.8320000171661	-14.791278887260
2.8359999656677	-14.409592643888
2.8399999141693	-14.041275548603
2.8440001010895	-13.685571140970
2.8480000495911	-13.341783927951
2.8519999980927	-13.009269996217
2.8559999465942	-12.687434465301
2.8599998950958	-12.375732891407
2.8640000820160	-12.073659752583
2.8680000305176	-11.780751482618
2.8719999790192	-11.496578101926
2.8759999275208	-11.220743701687
2.8800001144409	-10.952882452178
2.8840000629425	-10.692653375705
2.8880000114441	-10.439742067993
2.8919999599457	-10.193856545387
2.8959999084473	-9.9547244212659
2.9000000953674	-9.7220910170828
2.9040000438690	-9.4957206670683
2.9079999923706	-9.2753934098174
2.9119999408722	-9.0608995441193
2.9159998893738	-8.8520448918682
2.9200000762939	-8.6486454895435
2.9240000247955	-8.4505314499037
2.9279999732971	-8.2575381648606
2.9319999217987	-8.0695113748716
2.9360001087189	-7.8863073020764
2.9400000572205	-7.7077847773002
2.9440000057220	-7.5338118609830
2.9479999542236	-7.3642647945001
2.9519999027252	-7.1990213743957
2.9560000896454	-7.0379664069368
2.9600000381470	-6.8809906974456
2.9639999866486	-6.7279861061272
2.9679999351501	-6.5788530226960
2.9719998836517	-6.4334903640932
2.9760000705719	-6.2918047011966
2.9800000190735	-6.1537017691995
2.9839999675751	-6.0190935219886
2.9879999160767	-5.8878941199103
2.9920001029968	-5.7600184060343
2.9960000514984	-5.6353843298171
3.0000000000000	-5.5139131468369
3.0039999485016	-5.3955252627271
3.0079998970032	-5.2801485728044
3.0120000839233	-5.1677069008234
3.0160000324249	-5.0581273689420
3.0199999809265	-4.9513405626837
3.0239999294281	-4.8472771146092
3.0280001163483	-4.7458703364892
3.0320000648499	-4.6470552486244
3.0360000133514	-4.5507637562960
3.0399999618530	-4.4569364571889
3.0439999103546	-4.3655106714845
3.0480000972748	-4.2764258129804
3.0520000457764	-4.1896211552878
3.0559999942780	-4.1050424664916
3.0599999427795	-4.0226292890809
3.0639998912811	-3.9423295129102
3.0680000782013	-3.8640859410962
3.0720000267029	-3.7878484689114
3.0759999752045	-3.7135627527892
3.0799999237061	-3.6411799401867
3.0840001106262	-3.5706501997071
3.0880000591278	-3.5019253304309
3.0920000076294	-3.4349587350019
3.0959999561310	-3.3697023104875
3.0999999046326	-3.3061130185218
3.1040000915527	-3.2441464526873
3.1080000400543	-3.1837602339607
3.1119999885559	-3.1249117548015
3.1159999370575	-3.0675621221588
3.1199998855591	-3.0116701615036
3.1240000724792	-2.9571973538888
3.1280000209808	-2.9041070666313
3.1319999694824	-2.8523629607653
3.1359999179840	-2.8019286472535
3.1400001049042	-2.7527697169586
3.1440000534058	-2.7048534933322
3.1480000019073	-2.6581456543281
3.1519999504089	-2.6126160278633
3.1559998989105	-2.5682328327066
3.1600000858307	-2.5249663932332
3.1640000343323	-2.4827865567460
3.1679999828339	-2.4416679485020
3.1719999313354	-2.4015796301017
3.1760001182556	-2.3624971955743
3.1800000667572	-2.3243924737094
3.1840000152588	-2.2872425397031
3.1879999637604	-2.2510219354423
3.1919999122620	-2.2157064138090
3.1960000991821	-2.1812739317110
3.2000000476837	-2.1477019322458
3.2039999961853	-2.1149673401514
3.2079999446869	-2.0830508886928
3.2119998931885	-2.0519304904675
3.2160000801086	-2.0215855814498
3.2200000286102	-1.9919988604022
3.2239999771118	-1.9631509249448
3.2279999256134	-1.9350216765206
3.2320001125336	-1.9075938537890
3.2360000610352	-1.8808519321480
3.2400000095367	-1.8547761498384
3.2439999580383	-1.8293505189394
3.2479999065399	-1.8045599236131
3.2520000934601	-1.7803878576396
3.2560000419617	-1.7568199489489
3.2599999904633	-1.7338397048247
3.2639999389648	-1.7114334102916
3.2679998874664	-1.6895862959890
3.2720000743866	-1.6682846244461
